0 2544
1 2545
2 2531
3 2519
4 2506
5 2491
6 2476
7 2461
8 2452
9 2445
10 2446
11 2455
12 2465
13 2470
14 2485
15 2499
16 2506
17 2509
18 2514
19 2520
20 2532
21 2538
22 2533
23 2525
24 2517
25 2508
26 2500
27 2484
28 2473
29 2473
30 2474
31 2470
32 2473
33 2476
34 2487
35 2499
36 2511
37 2518
38 2523
39 2535
40 2540
41 2537
42 2531
43 2525
44 2514
45 2507
46 2501
47 2493
48 2488
49 2483
50 2482
51 2489
52 2500
53 2508
54 2518
55 2536
56 2553
57 2568
58 2573
59 2573
60 2571
61 2572
62 2561
63 2546
64 2537
65 2529
66 2522
67 2514
68 2514
69 2514
70 2518
71 2512
72 2514
73 2523
74 2537
75 2546
76 2554
77 2560
78 2561
79 2570
80 2573
81 2561
82 2548
83 2547
84 2548
85 2541
86 2529
87 2520
88 2514
89 2510
90 2512
91 2518
92 2527
93 2531
94 2528
95 2532
96 2540
97 2552
98 2562
99 2565
100 2564
101 2566
102 2566
103 2565
104 2566
105 2561
106 2548
107 2540
108 2536
109 2537
110 2539
111 2543
112 2553
113 2559
114 2567
115 2569
116 2572
117 2575
118 2579
119 2585
120 2588
121 2587
122 2579
123 2575
124 2574
125 2572
126 2568
127 2557
128 2543
129 2536
130 2535
131 2535
132 2543
133 2552
134 2564
135 2571
136 2576
137 2586
138 2589
139 2589
140 2595
141 2597
142 2591
143 2584
144 2573
145 2560
146 2545
147 2539
148 2541
149 2539
150 2542
151 2546
152 2546
153 2547
154 2561
155 2572
156 2575
157 2580
158 2581
159 2584
160 2586
161 2590
162 2591
163 2593
164 2581
165 2566
166 2554
167 2544
168 2541
169 2543
170 2547
171 2551
172 2557
173 2559
174 2568
175 2581
176 2588
177 2600
178 2605
179 2612
180 2613
181 2608
182 2595
183 2587
184 2580
185 2571
186 2560
187 2552
188 2554
189 2555
190 2564
191 2573
192 2583
193 2596
194 2606
195 2616
196 2618
197 2617
198 2608
199 2605
200 2610
201 2617
202 2614
203 2610
204 2608
205 2600
206 2591
207 2585
208 2586
209 2583
210 2581
211 2586
212 2595
213 2597
214 2603
215 2611
216 2624
217 2641
218 2650
219 2653
220 2656
221 2653
222 2649
223 2649
224 2643
225 2637
226 2632
227 2629
228 2629
229 2627
230 2626
231 2625
232 2626
233 2626
234 2637
235 2649
236 2657
237 2666
238 2675
239 2685
240 2692
241 2690
242 2678
243 2669
244 2652
245 2638
246 2635
247 2631
248 2628
249 2628
250 2633
251 2637
252 2641
253 2647
254 2656
255 2664
256 2672
257 2684
258 2690
259 2693
260 2692
261 2687
262 2675
263 2661
264 2649
265 2639
266 2631
267 2617
268 2609
269 2611
270 2616
271 2616
272 2620
273 2617
274 2615
275 2625
276 2634
277 2639
278 2640
279 2637
280 2635
281 2635
282 2638
283 2638
284 2628
285 2615
286 2605
287 2603
288 2599
289 2593
290 2589
291 2594
292 2603
293 2610
294 2616
295 2625
296 2635
297 2646
298 2654
299 2659
300 2658
301 2651
302 2644
303 2643
304 2633
305 2621
306 2614
307 2610
308 2606
309 2608
310 2614
311 2622
312 2628
313 2632
314 2634
315 2640
316 2649
317 2654
318 2653
319 2656
320 2659
321 2653
322 2643
323 2628
324 2615
325 2603
326 2590
327 2576
328 2573
329 2579
330 2584
331 2593
332 2604
333 2621
334 2638
335 2647
336 2659
337 2681
338 2697
339 2719
340 2740
341 2752
342 2756
343 2764
344 2770
345 2766
346 2762
347 2762
348 2772
349 2799
350 2826
351 2851
352 2875
353 2906
354 2946
355 2975
356 2987
357 2994
358 3005
359 3011
360 3002
361 2986
362 2959
363 2926
364 2887
365 2855
366 2821
367 2785
368 2744
369 2710
370 2681
371 2660
372 2648
373 2644
374 2643
375 2640
376 2646
377 2666
378 2686
379 2695
380 2696
381 2692
382 2683
383 2672
384 2661
385 2654
386 2654
387 2657
388 2657
389 2659
390 2672
391 2684
392 2686
393 2693
394 2702
395 2713
396 2724
397 2724
398 2718
399 2712
400 2715
401 2719
402 2715
403 2707
404 2698
405 2681
406 2664
407 2662
408 2675
409 2676
410 2669
411 2669
412 2672
413 2676
414 2683
415 2686
416 2693
417 2696
418 2698
419 2705
420 2714
421 2720
422 2720
423 2714
424 2708
425 2704
426 2699
427 2690
428 2683
429 2681
430 2684
431 2680
432 2683
433 2691
434 2704
435 2714
436 2722
437 2728
438 2730
439 2728
440 2728
441 2729
442 2724
443 2716
444 2703
445 2701
446 2699
447 2697
448 2695
449 2694
450 2696
451 2701
452 2709
453 2718
454 2726
455 2725
456 2732
457 2744
458 2757
459 2767
460 2769
461 2764
462 2755
463 2752
464 2749
465 2746
466 2741
467 2734
468 2733
469 2733
470 2729
471 2727
472 2729
473 2732
474 2738
475 2743
476 2758
477 2768
478 2775
479 2781
480 2783
481 2781
482 2779
483 2773
484 2765
485 2758
486 2751
487 2745
488 2743
489 2739
490 2744
491 2754
492 2760
493 2765
494 2778
495 2788
496 2796
497 2802
498 2802
499 2805
500 2808
501 2810
502 2813
503 2816
504 2818
505 2815
506 2811
507 2807
508 2803
509 2797
510 2794
511 2792
512 2791
513 2796
514 2807
515 2813
516 2825
517 2841
518 2854
519 2864
520 2868
521 2869
522 2874
523 2870
524 2866
525 2866
526 2867
527 2868
528 2865
529 2861
530 2864
531 2872
532 2883
533 2893
534 2902
535 2910
536 2920
537 2928
538 2928
539 2937
540 2946
541 2949
542 2946
543 2936
544 2926
545 2915
546 2908
547 2898
548 2893
549 2897
550 2910
551 2913
552 2915
553 2915
554 2922
555 2930
556 2944
557 2957
558 2964
559 2965
560 2956
561 2951
562 2946
563 2935
564 2932
565 2927
566 2917
567 2909
568 2900
569 2896
570 2899
571 2902
572 2903
573 2906
574 2918
575 2933
576 2940
577 2942
578 2942
579 2940
580 2938
581 2934
582 2929
583 2927
584 2917
585 2905
586 2895
587 2881
588 2868
589 2867
590 2869
591 2870
592 2874
593 2882
594 2891
595 2893
596 2898
597 2902
598 2908
599 2909
600 2907
601 2902
602 2896
603 2891
604 2883
605 2874
606 2864
607 2857
608 2855
609 2857
610 2862
611 2865
612 2867
613 2874
614 2881
615 2888
616 2894
617 2900
618 2908
619 2909
620 2910
621 2912
622 2908
623 2902
624 2899
625 2894
626 2891
627 2884
628 2882
629 2877
630 2877
631 2879
632 2883
633 2884
634 2892
635 2902
636 2913
637 2921
638 2922
639 2924
640 2922
641 2921
642 2919
643 2920
644 2916
645 2908
646 2904
647 2896
648 2891
649 2893
650 2897
651 2895
652 2896
653 2907
654 2920
655 2928
656 2939
657 2949
658 2953
659 2954
660 2954
661 2951
662 2944
663 2937
664 2930
665 2930
666 2935
667 2934
668 2938
669 2946
670 2960
671 2972
672 2978
673 2983
674 2991
675 2993
676 2998
677 3003
678 3000
679 2994
680 2987
681 2977
682 2964
683 2954
684 2934
685 2919
686 2910
687 2902
688 2894
689 2890
690 2892
691 2894
692 2894
693 2895
694 2899
695 2897
696 2896
697 2896
698 2896
699 2893
700 2879
701 2861
702 2853
703 2846
704 2835
705 2820
706 2802
707 2792
708 2785
709 2783
710 2787
711 2788
712 2787
713 2780
714 2776
715 2780
716 2780
717 2776
718 2766
719 2758
720 2752
721 2747
722 2744
723 2743
724 2737
725 2729
726 2718
727 2706
728 2698
729 2697
730 2702
731 2715
732 2727
733 2740
734 2755
735 2762
736 2766
737 2769
738 2772
739 2770
740 2771
741 2772
742 2771
743 2772
744 2767
745 2760
746 2756
747 2755
748 2752
749 2751
750 2750
751 2747
752 2751
753 2765
754 2780
755 2797
756 2808
757 2815
758 2820
759 2824
760 2825
761 2824
762 2821
763 2814
764 2800
765 2791
766 2790
767 2791
768 2789
769 2791
770 2789
771 2787
772 2792
773 2797
774 2802
775 2811
776 2812
777 2816
778 2821
779 2825
780 2831
781 2827
782 2819
783 2814
784 2811
785 2812
786 2809
787 2801
788 2792
789 2788
790 2789
791 2788
792 2790
793 2793
794 2801
795 2811
796 2821
797 2828
798 2834
799 2840
800 2849
801 2855
802 2853
803 2846
804 2840
805 2835
806 2825
807 2811
808 2802
809 2796
810 2796
811 2803
812 2813
813 2818
814 2822
815 2824
816 2832
817 2840
818 2846
819 2848
820 2847
821 2846
822 2847
823 2846
824 2830
825 2813
826 2795
827 2787
828 2789
829 2796
830 2795
831 2796
832 2798
833 2801
834 2814
835 2829
836 2839
837 2849
838 2855
839 2859
840 2861
841 2868
842 2872
843 2874
844 2864
845 2852
846 2845
847 2841
848 2841
849 2837
850 2831
851 2835
852 2850
853 2866
854 2879
855 2884
856 2892
857 2896
858 2899
859 2906
860 2908
861 2909
862 2907
863 2906
864 2903
865 2900
866 2896
867 2889
868 2889
869 2891
870 2897
871 2897
872 2901
873 2907
874 2908
875 2916
876 2931
877 2940
878 2945
879 2949
880 2947
881 2942
882 2937
883 2931
884 2921
885 2916
886 2905
887 2897
888 2891
889 2888
890 2890
891 2886
892 2881
893 2881
894 2886
895 2888
896 2890
897 2891
898 2888
899 2881
900 2873
901 2864
902 2852
903 2843
904 2832
905 2825
906 2811
907 2796
908 2783
909 2778
910 2775
911 2771
912 2774
913 2779
914 2785
915 2787
916 2792
917 2790
918 2786
919 2784
920 2776
921 2768
922 2759
923 2749
924 2737
925 2726
926 2713
927 2700
928 2692
929 2688
930 2685
931 2694
932 2710
933 2726
934 2739
935 2749
936 2752
937 2750
938 2750
939 2753
940 2755
941 2758
942 2763
943 2766
944 2766
945 2772
946 2782
947 2786
948 2791
949 2800
950 2815
951 2833
952 2854
953 2879
954 2910
955 2943
956 2971
957 2995
958 3008
959 3012
960 3010
961 3003
962 2994
963 2977
964 2956
965 2932
966 2899
967 2867
968 2838
969 2810
970 2782
971 2752
972 2725
973 2703
974 2689
975 2685
976 2684
977 2681
978 2680
979 2679
980 2678
981 2677
982 2678
983 2671
984 2658
985 2656
986 2656
987 2651
988 2651
989 2655
990 2658
991 2663
992 2671
993 2684
994 2700
995 2714
996 2726
997 2735
998 2740
999 2741
1000 2734
1001 2727
1002 2721
1003 2714
1004 2706
1005 2706
1006 2703
1007 2697
1008 2696
1009 2698
1010 2698
1011 2697
1012 2697
1013 2702
1014 2707
1015 2713
1016 2720
1017 2725
1018 2733
1019 2737
1020 2740
1021 2740
1022 2734
1023 2729
1024 2722
1025 2716
1026 2705
1027 2702
1028 2701
1029 2701
1030 2704
1031 2710
1032 2714
1033 2721
1034 2732
1035 2743
1036 2755
1037 2761
1038 2763
1039 2765
1040 2764
1041 2763
1042 2758
1043 2750
1044 2738
1045 2732
1046 2728
1047 2719
1048 2714
1049 2712
1050 2712
1051 2713
1052 2718
1053 2727
1054 2739
1055 2748
1056 2756
1057 2767
1058 2774
1059 2774
1060 2771
1061 2770
1062 2768
1063 2764
1064 2763
1065 2759
1066 2749
1067 2742
1068 2737
1069 2736
1070 2737
1071 2739
1072 2745
1073 2755
1074 2765
1075 2771
1076 2773
1077 2776
1078 2780
1079 2779
1080 2779
1081 2778
1082 2771
1083 2767
1084 2761
1085 2756
1086 2751
1087 2743
1088 2741
1089 2743
1090 2743
1091 2744
1092 2750
1093 2759
1094 2767
1095 2777
1096 2786
1097 2788
1098 2789
1099 2792
1100 2792
1101 2789
1102 2787
1103 2782
1104 2777
1105 2768
1106 2763
1107 2755
1108 2747
1109 2746
1110 2748
1111 2751
1112 2754
1113 2756
1114 2766
1115 2778
1116 2788
1117 2795
1118 2797
1119 2796
1120 2795
1121 2790
1122 2783
1123 2775
1124 2768
1125 2762
1126 2753
1127 2748
1128 2751
1129 2753
1130 2749
1131 2755
1132 2765
1133 2777
1134 2787
1135 2790
1136 2798
1137 2807
1138 2813
1139 2816
1140 2817
1141 2814
1142 2814
1143 2813
1144 2809
1145 2802
1146 2795
1147 2786
1148 2783
1149 2783
1150 2780
1151 2779
1152 2785
1153 2792
1154 2802
1155 2810
1156 2823
1157 2832
1158 2840
1159 2845
1160 2846
1161 2839
1162 2834
1163 2826
1164 2817
1165 2807
1166 2798
1167 2794
1168 2789
1169 2786
1170 2791
1171 2795
1172 2799
1173 2808
1174 2816
1175 2826
1176 2839
1177 2849
1178 2849
1179 2846
1180 2844
1181 2841
1182 2831
1183 2822
1184 2811
1185 2803
1186 2795
1187 2789
1188 2786
1189 2786
1190 2790
1191 2793
1192 2799
1193 2808
1194 2815
1195 2824
1196 2835
1197 2844
1198 2845
1199 2844
1200 2841
1201 2836
1202 2823
1203 2818
1204 2810
1205 2798
1206 2782
1207 2775
1208 2779
1209 2785
1210 2785
1211 2784
1212 2789
1213 2796
1214 2807
1215 2812
1216 2818
1217 2820
1218 2823
1219 2823
1220 2818
1221 2806
1222 2798
1223 2792
1224 2783
1225 2777
1226 2772
1227 2765
1228 2761
1229 2764
1230 2770
1231 2779
1232 2787
1233 2794
1234 2804
1235 2813
1236 2819
1237 2822
1238 2826
1239 2828
1240 2829
1241 2823
1242 2813
1243 2805
1244 2799
1245 2795
1246 2786
1247 2779
1248 2777
1249 2774
1250 2775
1251 2780
1252 2784
1253 2791
1254 2800
1255 2806
1256 2814
1257 2822
1258 2829
1259 2833
1260 2829
1261 2824
1262 2814
1263 2805
1264 2798
1265 2788
1266 2772
1267 2761
1268 2760
1269 2760
1270 2759
1271 2760
1272 2766
1273 2772
1274 2776
1275 2784
1276 2797
1277 2805
1278 2809
1279 2808
1280 2804
1281 2793
1282 2789
1283 2785
1284 2779
1285 2769
1286 2756
1287 2749
1288 2743
1289 2742
1290 2746
1291 2750
1292 2750
1293 2753
1294 2765
1295 2777
1296 2787
1297 2795
1298 2802
1299 2810
1300 2814
1301 2807
1302 2796
1303 2788
1304 2778
1305 2774
1306 2768
1307 2763
1308 2759
1309 2757
1310 2753
1311 2755
1312 2764
1313 2771
1314 2776
1315 2782
1316 2793
1317 2802
1318 2805
1319 2802
1320 2798
1321 2792
1322 2781
1323 2773
1324 2762
1325 2752
1326 2742
1327 2729
1328 2722
1329 2719
1330 2722
1331 2727
1332 2733
1333 2740
1334 2753
1335 2761
1336 2769
1337 2776
1338 2779
1339 2781
1340 2783
1341 2780
1342 2775
1343 2767
1344 2754
1345 2742
1346 2732
1347 2725
1348 2723
1349 2723
1350 2723
1351 2726
1352 2733
1353 2743
1354 2753
1355 2760
1356 2765
1357 2768
1358 2772
1359 2778
1360 2776
1361 2764
1362 2752
1363 2743
1364 2732
1365 2727
1366 2718
1367 2709
1368 2701
1369 2694
1370 2694
1371 2697
1372 2703
1373 2715
1374 2729
1375 2744
1376 2753
1377 2755
1378 2753
1379 2756
1380 2758
1381 2757
1382 2751
1383 2741
1384 2729
1385 2718
1386 2707
1387 2702
1388 2704
1389 2704
1390 2703
1391 2711
1392 2719
1393 2727
1394 2735
1395 2744
1396 2756
1397 2762
1398 2768
1399 2766
1400 2766
1401 2764
1402 2757
1403 2748
1404 2740
1405 2727
1406 2718
1407 2712
1408 2702
1409 2700
1410 2704
1411 2709
1412 2715
1413 2724
1414 2735
1415 2741
1416 2753
1417 2760
1418 2762
1419 2758
1420 2753
1421 2744
1422 2732
1423 2719
1424 2708
1425 2694
1426 2684
1427 2676
1428 2674
1429 2676
1430 2678
1431 2681
1432 2686
1433 2693
1434 2704
1435 2711
1436 2718
1437 2726
1438 2732
1439 2727
1440 2716
1441 2704
1442 2691
1443 2679
1444 2667
1445 2660
1446 2651
1447 2640
1448 2635
1449 2633
1450 2628
1451 2627
1452 2629
1453 2640
1454 2654
1455 2664
1456 2669
1457 2677
1458 2682
1459 2679
1460 2676
1461 2669
1462 2667
1463 2661
1464 2649
1465 2639
1466 2629
1467 2620
1468 2610
1469 2612
1470 2615
1471 2619
1472 2622
1473 2631
1474 2643
1475 2651
1476 2657
1477 2660
1478 2662
1479 2663
1480 2662
1481 2661
1482 2657
1483 2651
1484 2640
1485 2630
1486 2621
1487 2615
1488 2612
1489 2611
1490 2610
1491 2616
1492 2623
1493 2629
1494 2638
1495 2648
1496 2657
1497 2660
1498 2658
1499 2651
1500 2642
1501 2635
1502 2628
1503 2613
1504 2597
1505 2587
1506 2578
1507 2572
1508 2573
1509 2581
1510 2589
1511 2601
1512 2610
1513 2624
1514 2644
1515 2662
1516 2681
1517 2696
1518 2704
1519 2711
1520 2717
1521 2723
1522 2732
1523 2728
1524 2724
1525 2726
1526 2735
1527 2741
1528 2754
1529 2770
1530 2795
1531 2822
1532 2844
1533 2864
1534 2881
1535 2894
1536 2898
1537 2895
1538 2888
1539 2875
1540 2858
1541 2832
1542 2804
1543 2770
1544 2734
1545 2697
1546 2663
1547 2633
1548 2601
1549 2579
1550 2570
1551 2569
1552 2568
1553 2574
1554 2582
1555 2587
1556 2594
1557 2606
1558 2616
1559 2615
1560 2612
1561 2608
1562 2598
1563 2588
1564 2573
1565 2565
1566 2558
1567 2554
1568 2548
1569 2547
1570 2550
1571 2555
1572 2565
1573 2575
1574 2584
1575 2596
1576 2607
1577 2610
1578 2611
1579 2613
1580 2614
1581 2606
1582 2595
1583 2587
1584 2581
1585 2575
1586 2562
1587 2552
1588 2546
1589 2543
1590 2545
1591 2553
1592 2563
1593 2570
1594 2578
1595 2594
1596 2603
1597 2608
1598 2608
1599 2607
1600 2612
1601 2609
1602 2607
1603 2603
1604 2599
1605 2595
1606 2589
1607 2580
1608 2573
1609 2571
1610 2569
1611 2568
1612 2570
1613 2579
1614 2585
1615 2594
1616 2602
1617 2602
1618 2601
1619 2602
1620 2600
1621 2593
1622 2586
1623 2577
1624 2569
1625 2563
1626 2560
1627 2559
1628 2557
1629 2557
1630 2560
1631 2564
1632 2568
1633 2577
1634 2591
1635 2603
1636 2614
1637 2620
1638 2622
1639 2625
1640 2625
1641 2619
1642 2611
1643 2602
1644 2595
1645 2590
1646 2579
1647 2568
1648 2564
1649 2559
1650 2560
1651 2566
1652 2568
1653 2571
1654 2581
1655 2589
1656 2595
1657 2604
1658 2610
1659 2611
1660 2607
1661 2600
1662 2595
1663 2589
1664 2574
1665 2564
1666 2552
1667 2543
1668 2540
1669 2539
1670 2541
1671 2546
1672 2549
1673 2560
1674 2572
1675 2582
1676 2593
1677 2605
1678 2613
1679 2612
1680 2609
1681 2605
1682 2597
1683 2586
1684 2576
1685 2560
1686 2543
1687 2531
1688 2527
1689 2528
1690 2530
1691 2538
1692 2547
1693 2560
1694 2569
1695 2580
1696 2592
1697 2599
1698 2600
1699 2596
1700 2596
1701 2594
1702 2595
1703 2587
1704 2577
1705 2567
1706 2562
1707 2559
1708 2555
1709 2559
1710 2561
1711 2563
1712 2567
1713 2574
1714 2578
1715 2581
1716 2584
1717 2585
1718 2589
1719 2592
1720 2592
1721 2587
1722 2582
1723 2570
1724 2559
1725 2550
1726 2541
1727 2541
1728 2549
1729 2556
1730 2554
1731 2557
1732 2557
1733 2563
1734 2569
1735 2569
1736 2571
1737 2575
1738 2575
1739 2576
1740 2574
1741 2571
1742 2565
1743 2557
1744 2546
1745 2537
1746 2530
1747 2526
1748 2524
1749 2525
1750 2528
1751 2534
1752 2542
1753 2556
1754 2568
1755 2581
1756 2585
1757 2589
1758 2589
1759 2587
1760 2585
1761 2581
1762 2573
1763 2561
1764 2545
1765 2534
1766 2524
1767 2517
1768 2514
1769 2514
1770 2515
1771 2523
1772 2531
1773 2541
1774 2549
1775 2554
1776 2560
1777 2563
1778 2568
1779 2570
1780 2569
1781 2558
1782 2552
1783 2543
1784 2535
1785 2525
1786 2513
1787 2504
1788 2500
1789 2504
1790 2511
1791 2519
1792 2526
1793 2537
1794 2541
1795 2548
1796 2555
1797 2562
1798 2564
1799 2561
1800 2558
1801 2544
1802 2533
1803 2519
1804 2504
1805 2489
1806 2474
1807 2464
1808 2461
1809 2458
1810 2460
1811 2474
1812 2487
1813 2497
1814 2506
1815 2516
1816 2523
1817 2521
1818 2521
1819 2518
1820 2511
1821 2509
1822 2505
1823 2499
1824 2492
1825 2481
1826 2472
1827 2470
1828 2473
1829 2473
1830 2472
1831 2471
1832 2474
1833 2484
1834 2496
1835 2508
1836 2520
1837 2528
1838 2528
1839 2527
1840 2525
1841 2519
1842 2507
1843 2498
1844 2490
1845 2480
1846 2471
1847 2469
1848 2465
1849 2459
1850 2455
1851 2458
1852 2464
1853 2469
1854 2480
1855 2485
1856 2490
1857 2491
1858 2490
1859 2491
1860 2487
1861 2474
1862 2461
1863 2449
1864 2437
1865 2427
1866 2418
1867 2409
1868 2407
1869 2408
1870 2412
1871 2419
1872 2429
1873 2440
1874 2446
1875 2453
1876 2462
1877 2468
1878 2475
1879 2476
1880 2474
1881 2467
1882 2456
1883 2445
1884 2433
1885 2426
1886 2416
1887 2409
1888 2404
1889 2404
1890 2407
1891 2414
1892 2427
1893 2444
1894 2458
1895 2465
1896 2470
1897 2469
1898 2475
1899 2476
1900 2471
1901 2464
1902 2456
1903 2445
1904 2437
1905 2430
1906 2421
1907 2417
1908 2414
1909 2412
1910 2415
1911 2424
1912 2426
1913 2436
1914 2445
1915 2451
1916 2457
1917 2469
1918 2476
1919 2477
1920 2469
1921 2460
1922 2452
1923 2444
1924 2434
1925 2426
1926 2416
1927 2412
1928 2411
1929 2413
1930 2413
1931 2416
1932 2422
1933 2427
1934 2432
1935 2440
1936 2451
1937 2458
1938 2466
1939 2471
1940 2468
1941 2462
1942 2458
1943 2451
1944 2443
1945 2435
1946 2430
1947 2423
1948 2421
1949 2423
1950 2424
1951 2427
1952 2436
1953 2449
1954 2462
1955 2471
1956 2478
1957 2479
1958 2478
1959 2477
1960 2478
1961 2475
1962 2469
1963 2459
1964 2449
1965 2442
1966 2435
1967 2428
1968 2423
1969 2427
1970 2430
1971 2445
1972 2455
1973 2463
1974 2474
1975 2481
1976 2486
1977 2491
1978 2496
1979 2498
1980 2500
1981 2496
1982 2492
1983 2485
1984 2479
1985 2469
1986 2457
1987 2451
1988 2448
1989 2449
1990 2451
1991 2458
1992 2463
1993 2477
1994 2492
1995 2501
1996 2506
1997 2503
1998 2504
1999 2505
2000 2499
2001 2486
2002 2474
2003 2464
2004 2451
2005 2442
2006 2437
2007 2430
2008 2424
2009 2421
2010 2425
2011 2427
2012 2429
2013 2431
2014 2433
2015 2436
2016 2443
2017 2446
2018 2445
2019 2443
2020 2439
2021 2433
2022 2425
2023 2412
2024 2403
2025 2392
2026 2384
2027 2382
2028 2384
2029 2386
2030 2389
2031 2388
2032 2389
2033 2398
2034 2404
2035 2407
2036 2413
2037 2418
2038 2420
2039 2420
2040 2413
2041 2408
2042 2401
2043 2391
2044 2377
2045 2368
2046 2360
2047 2357
2048 2356
2049 2358
2050 2359
2051 2356
2052 2357
2053 2367
2054 2373
2055 2383
2056 2387
2057 2385
2058 2383
2059 2378
2060 2374
2061 2368
2062 2360
2063 2350
2064 2342
2065 2332
2066 2323
2067 2317
2068 2308
2069 2304
2070 2303
2071 2304
2072 2307
2073 2314
2074 2320
2075 2326
2076 2336
2077 2346
2078 2355
2079 2364
2080 2367
2081 2362
2082 2353
2083 2338
2084 2325
2085 2323
2086 2320
2087 2323
2088 2333
2089 2342
2090 2353
2091 2366
2092 2379
2093 2403
2094 2428
2095 2451
2096 2476
2097 2499
2098 2520
2099 2542
2100 2561
2101 2579
2102 2599
2103 2612
2104 2619
2105 2618
2106 2612
2107 2602
2108 2591
2109 2580
2110 2570
2111 2556
2112 2532
2113 2513
2114 2497
2115 2490
2116 2478
2117 2456
2118 2430
2119 2393
2120 2363
2121 2337
2122 2321
2123 2304
2124 2292
2125 2283
2126 2277
2127 2274
2128 2276
2129 2282
2130 2286
2131 2296
2132 2311
2133 2329
2134 2347
2135 2358
2136 2374
2137 2386
2138 2390
2139 2388
2140 2378
2141 2366
2142 2361
2143 2354
2144 2343
2145 2328
2146 2314
2147 2295
2148 2280
2149 2278
2150 2282
2151 2285
2152 2290
2153 2303
2154 2317
2155 2327
2156 2335
2157 2340
2158 2345
2159 2348
2160 2349
2161 2341
2162 2334
2163 2327
2164 2320
2165 2314
2166 2310
2167 2307
2168 2305
2169 2308
2170 2307
2171 2305
2172 2305
2173 2313
2174 2322
2175 2330
2176 2337
2177 2338
2178 2334
2179 2332
2180 2328
2181 2327
2182 2319
2183 2308
2184 2301
2185 2295
2186 2288
2187 2283
2188 2280
2189 2279
2190 2281
2191 2283
2192 2285
2193 2292
2194 2303
2195 2309
2196 2318
2197 2320
2198 2316
2199 2315
2200 2317
2201 2313
2202 2307
2203 2294
2204 2283
2205 2273
2206 2265
2207 2263
2208 2260
2209 2257
2210 2253
2211 2251
2212 2249
2213 2253
2214 2256
2215 2263
2216 2274
2217 2277
2218 2277
2219 2277
2220 2274
2221 2271
2222 2269
2223 2258
2224 2249
2225 2239
2226 2230
2227 2225
2228 2223
2229 2221
2230 2219
2231 2223
2232 2227
2233 2234
2234 2238
2235 2239
2236 2238
2237 2238
2238 2236
2239 2236
2240 2226
2241 2219
2242 2214
2243 2204
2244 2196
2245 2188
2246 2177
2247 2170
2248 2164
2249 2163
2250 2163
2251 2164
2252 2167
2253 2176
2254 2179
2255 2185
2256 2192
2257 2196
2258 2199
2259 2200
2260 2201
2261 2196
2262 2191
2263 2182
2264 2176
2265 2168
2266 2160
2267 2153
2268 2152
2269 2157
2270 2160
2271 2168
2272 2177
2273 2183
2274 2186
2275 2193
2276 2200
2277 2207
2278 2206
2279 2205
2280 2204
2281 2199
2282 2190
2283 2178
2284 2165
2285 2153
2286 2145
2287 2142
2288 2141
2289 2145
2290 2152
2291 2160
2292 2165
2293 2174
2294 2183
2295 2193
2296 2207
2297 2219
2298 2227
2299 2230
2300 2230
2301 2223
2302 2208
2303 2186
2304 2169
2305 2159
2306 2152
2307 2148
2308 2141
2309 2142
2310 2147
2311 2158
2312 2167
2313 2182
2314 2196
2315 2204
2316 2214
2317 2216
2318 2218
2319 2221
2320 2222
2321 2215
2322 2206
2323 2201
2324 2193
2325 2180
2326 2165
2327 2158
2328 2157
2329 2155
2330 2156
2331 2162
2332 2166
2333 2174
2334 2183
2335 2196
2336 2205
2337 2210
2338 2211
2339 2209
2340 2205
2341 2198
2342 2195
2343 2185
2344 2178
2345 2172
2346 2165
2347 2158
2348 2159
2349 2165
2350 2166
2351 2170
2352 2178
2353 2186
2354 2192
2355 2201
2356 2209
2357 2211
2358 2210
2359 2208
2360 2205
2361 2200
2362 2196
2363 2187
2364 2177
2365 2169
2366 2164
2367 2162
2368 2161
2369 2161
2370 2165
2371 2170
2372 2172
2373 2178
2374 2184
2375 2193
2376 2200
2377 2200
2378 2204
2379 2213
2380 2211
2381 2200
2382 2190
2383 2178
2384 2161
2385 2145
2386 2132
2387 2128
2388 2136
2389 2134
2390 2136
2391 2143
2392 2156
2393 2168
2394 2181
2395 2192
2396 2201
2397 2202
2398 2199
2399 2197
2400 2198
2401 2198
2402 2197
2403 2190
2404 2180
2405 2182
2406 2182
2407 2180
2408 2169
2409 2163
2410 2167
2411 2175
2412 2178
2413 2182
2414 2189
2415 2197
2416 2191
2417 2190
2418 2196
2419 2199
2420 2194
2421 2189
2422 2181
2423 2169
2424 2162
2425 2155
2426 2153
2427 2153
2428 2152
2429 2155
2430 2158
2431 2162
2432 2166
2433 2175
2434 2184
2435 2190
2436 2199
2437 2209
2438 2211
2439 2208
2440 2200
2441 2189
2442 2182
2443 2173
2444 2167
2445 2163
2446 2153
2447 2149
2448 2147
2449 2146
2450 2150
2451 2156
2452 2163
2453 2176
2454 2192
2455 2201
2456 2204
2457 2199
2458 2191
2459 2183
2460 2177
2461 2170
2462 2162
2463 2156
2464 2146
2465 2137
2466 2128
2467 2119
2468 2114
2469 2119
2470 2126
2471 2131
2472 2140
2473 2152
2474 2160
2475 2166
2476 2174
2477 2176
2478 2177
2479 2174
2480 2167
2481 2158
2482 2156
2483 2147
2484 2140
2485 2133
2486 2126
2487 2122
2488 2120
2489 2120
2490 2125
2491 2133
2492 2144
2493 2157
2494 2166
2495 2177
2496 2186
2497 2185
2498 2183
2499 2177
2500 2166
2501 2156
2502 2150
2503 2138
2504 2125
2505 2119
2506 2112
2507 2110
2508 2109
2509 2107
2510 2117
2511 2125
2512 2132
2513 2142
2514 2150
2515 2162
2516 2167
2517 2172
2518 2171
2519 2171
2520 2173
2521 2166
2522 2159
2523 2153
2524 2147
2525 2141
2526 2131
2527 2125
2528 2126
2529 2126
2530 2130
2531 2134
2532 2138
2533 2145
2534 2152
2535 2158
2536 2166
2537 2176
2538 2183
2539 2181
2540 2178
2541 2171
2542 2165
2543 2162
2544 2158
2545 2152
2546 2146
2547 2142
2548 2141
2549 2138
2550 2136
2551 2136
2552 2142
2553 2153
2554 2158
2555 2163
2556 2163
2557 2160
2558 2165
2559 2169
2560 2170
2561 2167
2562 2158
2563 2148
2564 2139
2565 2125
2566 2112
2567 2103
2568 2101
2569 2105
2570 2106
2571 2108
2572 2109
2573 2116
2574 2120
2575 2125
2576 2129
2577 2130
2578 2133
2579 2132
2580 2125
2581 2117
2582 2109
2583 2098
2584 2088
2585 2076
2586 2061
2587 2052
2588 2047
2589 2048
2590 2050
2591 2051
2592 2052
2593 2061
2594 2072
2595 2081
2596 2085
2597 2091
2598 2094
2599 2087
2600 2083
2601 2082
2602 2070
2603 2055
2604 2041
2605 2031
2606 2021
2607 2014
2608 2012
2609 2011
2610 2012
2611 2018
2612 2027
2613 2039
2614 2052
2615 2065
2616 2077
2617 2082
2618 2083
2619 2079
2620 2074
2621 2069
2622 2063
2623 2056
2624 2049
2625 2041
2626 2031
2627 2023
2628 2020
2629 2023
2630 2024
2631 2025
2632 2030
2633 2041
2634 2050
2635 2059
2636 2066
2637 2070
2638 2067
2639 2057
2640 2051
2641 2049
2642 2043
2643 2031
2644 2015
2645 2004
2646 1997
2647 1993
2648 1989
2649 1988
2650 1990
2651 1994
2652 2001
2653 2020
2654 2036
2655 2049
2656 2059
2657 2068
2658 2077
2659 2087
2660 2090
2661 2092
2662 2094
2663 2089
2664 2090
2665 2097
2666 2102
2667 2107
2668 2118
2669 2133
2670 2155
2671 2182
2672 2210
2673 2241
2674 2276
2675 2307
2676 2335
2677 2352
2678 2358
2679 2361
2680 2356
2681 2342
2682 2325
2683 2303
2684 2274
2685 2239
2686 2201
2687 2165
2688 2134
2689 2109
2690 2083
2691 2057
2692 2035
2693 2014
2694 1999
2695 1996
2696 1998
2697 2001
2698 2003
2699 2003
2700 1998
2701 1992
2702 1987
2703 1977
2704 1970
2705 1964
2706 1961
2707 1963
2708 1967
2709 1970
2710 1973
2711 1983
2712 1995
2713 2008
2714 2018
2715 2024
2716 2031
2717 2036
2718 2041
2719 2043
2720 2039
2721 2030
2722 2023
2723 2013
2724 2005
2725 1998
2726 1995
2727 1993
2728 1991
2729 1988
2730 1989
2731 1995
2732 2003
2733 2016
2734 2028
2735 2038
2736 2044
2737 2051
2738 2052
2739 2044
2740 2037
2741 2026
2742 2018
2743 2006
2744 1994
2745 1988
2746 1983
2747 1977
2748 1977
2749 1977
2750 1978
2751 1984
2752 1995
2753 2004
2754 2012
2755 2021
2756 2028
2757 2035
2758 2037
2759 2033
2760 2029
2761 2022
2762 2014
2763 2005
2764 1996
2765 1988
2766 1981
2767 1978
2768 1980
2769 1985
2770 1995
2771 2004
2772 2011
2773 2021
2774 2027
2775 2030
2776 2032
2777 2036
2778 2040
2779 2042
2780 2040
2781 2040
2782 2034
2783 2023
2784 2014
2785 2001
2786 1990
2787 1987
2788 1987
2789 1989
2790 1993
2791 1997
2792 2002
2793 2011
2794 2021
2795 2030
2796 2034
2797 2036
2798 2037
2799 2036
2800 2036
2801 2032
2802 2028
2803 2022
2804 2015
2805 2008
2806 2002
2807 1995
2808 1992
2809 1996
2810 2001
2811 2007
2812 2016
2813 2028
2814 2038
2815 2050
2816 2058
2817 2060
2818 2057
2819 2055
2820 2053
2821 2045
2822 2034
2823 2019
2824 2011
2825 2006
2826 2001
2827 1996
2828 1997
2829 1999
2830 2005
2831 2009
2832 2014
2833 2022
2834 2032
2835 2041
2836 2047
2837 2051
2838 2052
2839 2052
2840 2048
2841 2041
2842 2035
2843 2028
2844 2023
2845 2019
2846 2014
2847 2012
2848 2012
2849 2013
2850 2018
2851 2024
2852 2028
2853 2037
2854 2047
2855 2053
2856 2058
2857 2058
2858 2055
2859 2055
2860 2052
2861 2043
2862 2034
2863 2026
2864 2017
2865 2008
2866 2001
2867 2001
2868 2000
2869 2000
2870 2004
2871 2013
2872 2023
2873 2036
2874 2047
2875 2056
2876 2063
2877 2066
2878 2066
2879 2064
2880 2062
2881 2057
2882 2047
2883 2038
2884 2031
2885 2023
2886 2015
2887 2016
2888 2020
2889 2026
2890 2026
2891 2024
2892 2022
2893 2032
2894 2045
2895 2055
2896 2059
2897 2056
2898 2055
2899 2052
2900 2046
2901 2037
2902 2028
2903 2016
2904 2005
2905 1995
2906 1990
2907 1989
2908 1986
2909 1990
2910 1995
2911 2001
2912 2011
2913 2022
2914 2034
2915 2042
2916 2049
2917 2052
2918 2051
2919 2047
2920 2040
2921 2034
2922 2026
2923 2017
2924 2008
2925 1997
2926 1992
2927 1988
2928 1986
2929 1989
2930 1989
2931 1990
2932 1991
2933 2000
2934 2010
2935 2020
2936 2026
2937 2026
2938 2021
2939 2019
2940 2014
2941 2010
2942 2002
2943 1989
2944 1979
2945 1970
2946 1965
2947 1962
2948 1962
2949 1960
2950 1961
2951 1968
2952 1977
2953 1987
2954 2000
2955 2009
2956 2013
2957 2011
2958 2008
2959 2004
2960 2000
2961 1993
2962 1987
2963 1978
2964 1970
2965 1960
2966 1952
2967 1948
2968 1948
2969 1954
2970 1959
2971 1962
2972 1968
2973 1974
2974 1982
2975 1990
2976 1997
2977 2004
2978 2002
2979 1999
2980 1993
2981 1988
2982 1985
2983 1978
2984 1973
2985 1969
2986 1963
2987 1959
2988 1957
2989 1960
2990 1967
2991 1970
2992 1978
2993 1987
2994 1993
2995 1999
2996 2005
2997 2011
2998 2015
2999 2011
3000 2008
3001 2000
3002 1991
3003 1980
3004 1970
3005 1961
3006 1954
3007 1951
3008 1951
3009 1955
3010 1961
3011 1967
3012 1975
3013 1984
3014 1993
3015 2003
3016 2008
3017 2011
3018 2010
3019 2006
3020 2001
3021 1999
3022 1992
3023 1982
3024 1972
3025 1963
3026 1957
3027 1949
3028 1945
3029 1944
3030 1943
3031 1949
3032 1957
3033 1971
3034 1983
3035 1993
3036 1999
3037 2004
3038 2005
3039 2001
3040 1995
3041 1988
3042 1979
3043 1967
3044 1955
3045 1947
3046 1940
3047 1938
3048 1941
3049 1946
3050 1952
3051 1956
3052 1964
3053 1977
3054 1986
3055 1988
3056 1989
3057 1987
3058 1985
3059 1982
3060 1974
3061 1962
3062 1949
3063 1936
3064 1928
3065 1922
3066 1917
3067 1913
3068 1913
3069 1917
3070 1925
3071 1932
3072 1940
3073 1953
3074 1964
3075 1978
3076 1986
3077 1990
3078 1988
3079 1978
3080 1967
3081 1957
3082 1948
3083 1938
3084 1931
3085 1919
3086 1910
3087 1907
3088 1908
3089 1913
3090 1925
3091 1933
3092 1937
3093 1944
3094 1951
3095 1960
3096 1967
3097 1973
3098 1974
3099 1974
3100 1970
3101 1964
3102 1956
3103 1948
3104 1943
3105 1937
3106 1931
3107 1931
3108 1933
3109 1935
3110 1941
3111 1946
3112 1954
3113 1958
3114 1966
3115 1975
3116 1979
3117 1978
3118 1973
3119 1971
3120 1968
3121 1963
3122 1955
3123 1944
3124 1936
3125 1932
3126 1927
3127 1923
3128 1922
3129 1923
3130 1929
3131 1938
3132 1947
3133 1953
3134 1962
3135 1973
3136 1984
3137 1990
3138 1987
3139 1978
3140 1971
3141 1962
3142 1951
3143 1942
3144 1931
3145 1921
3146 1914
3147 1909
3148 1907
3149 1908
3150 1909
3151 1909
3152 1906
3153 1906
3154 1911
3155 1918
3156 1921
3157 1916
3158 1911
3159 1909
3160 1906
3161 1902
3162 1895
3163 1888
3164 1879
3165 1868
3166 1862
3167 1858
3168 1858
3169 1859
3170 1863
3171 1868
3172 1876
3173 1889
3174 1900
3175 1908
3176 1913
3177 1917
3178 1916
3179 1914
3180 1911
3181 1904
3182 1896
3183 1885
3184 1875
3185 1867
3186 1862
3187 1858
3188 1857
3189 1859
3190 1862
3191 1866
3192 1877
3193 1887
3194 1896
3195 1902
3196 1908
3197 1910
3198 1910
3199 1905
3200 1900
3201 1897
3202 1888
3203 1875
3204 1866
3205 1858
3206 1852
3207 1845
3208 1841
3209 1844
3210 1851
3211 1853
3212 1861
3213 1875
3214 1888
3215 1897
3216 1898
3217 1895
3218 1890
3219 1887
3220 1885
3221 1882
3222 1876
3223 1868
3224 1864
3225 1865
3226 1862
3227 1863
3228 1867
3229 1880
3230 1892
3231 1909
3232 1925
3233 1941
3234 1961
3235 1981
3236 1999
3237 2015
3238 2026
3239 2041
3240 2059
3241 2072
3242 2079
3243 2088
3244 2102
3245 2120
3246 2132
3247 2139
3248 2140
3249 2148
3250 2154
3251 2150
3252 2147
3253 2144
3254 2131
3255 2117
3256 2099
3257 2072
3258 2047
3259 2020
3260 1990
3261 1958
3262 1918
3263 1878
3264 1843
3265 1814
3266 1796
3267 1787
3268 1787
3269 1789
3270 1799
3271 1810
3272 1822
3273 1840
3274 1853
3275 1862
3276 1865
3277 1868
3278 1869
3279 1869
3280 1867
3281 1861
3282 1850
3283 1837
3284 1828
3285 1822
3286 1820
3287 1819
3288 1823
3289 1827
3290 1831
3291 1840
3292 1852
3293 1864
3294 1876
3295 1882
3296 1885
3297 1886
3298 1885
3299 1881
3300 1875
3301 1869
3302 1855
3303 1846
3304 1839
3305 1830
3306 1820
3307 1812
3308 1809
3309 1808
3310 1816
3311 1824
3312 1835
3313 1844
3314 1849
3315 1858
3316 1867
3317 1870
3318 1870
3319 1866
3320 1862
3321 1859
3322 1853
3323 1843
3324 1833
3325 1821
3326 1813
3327 1808
3328 1810
3329 1812
3330 1817
3331 1823
3332 1835
3333 1848
3334 1857
3335 1862
3336 1864
3337 1865
3338 1866
3339 1865
3340 1861
3341 1851
3342 1838
3343 1826
3344 1819
3345 1814
3346 1810
3347 1808
3348 1807
3349 1812
3350 1818
3351 1825
3352 1830
3353 1837
3354 1845
3355 1856
3356 1862
3357 1865
3358 1868
3359 1866
3360 1858
3361 1850
3362 1841
3363 1831
3364 1823
3365 1814
3366 1810
3367 1806
3368 1805
3369 1807
3370 1811
3371 1817
3372 1826
3373 1835
3374 1844
3375 1850
3376 1857
3377 1860
3378 1860
3379 1857
3380 1853
3381 1848
3382 1841
3383 1834
3384 1824
3385 1817
3386 1813
3387 1812
3388 1816
3389 1815
3390 1820
3391 1823
3392 1835
3393 1845
3394 1854
3395 1862
3396 1867
3397 1869
3398 1869
3399 1866
3400 1860
3401 1855
3402 1849
3403 1839
3404 1832
3405 1826
3406 1826
3407 1828
3408 1832
3409 1836
3410 1839
3411 1841
3412 1848
3413 1852
3414 1859
3415 1869
3416 1871
3417 1873
3418 1872
3419 1869
3420 1864
3421 1859
3422 1850
3423 1842
3424 1835
3425 1828
3426 1825
3427 1825
3428 1829
3429 1835
3430 1841
3431 1848
3432 1859
3433 1867
3434 1874
3435 1881
3436 1883
3437 1885
3438 1885
3439 1884
3440 1878
3441 1874
3442 1867
3443 1856
3444 1848
3445 1837
3446 1828
3447 1824
3448 1830
3449 1838
3450 1840
3451 1844
3452 1852
3453 1862
3454 1874
3455 1881
3456 1883
3457 1886
3458 1884
3459 1882
3460 1875
3461 1866
3462 1855
3463 1845
3464 1835
3465 1825
3466 1819
3467 1813
3468 1817
3469 1823
3470 1826
3471 1830
3472 1842
3473 1853
3474 1858
3475 1864
3476 1870
3477 1872
3478 1869
3479 1869
3480 1866
3481 1861
3482 1850
3483 1840
3484 1832
3485 1825
3486 1818
3487 1814
3488 1815
3489 1818
3490 1825
3491 1830
3492 1837
3493 1848
3494 1856
3495 1864
3496 1873
3497 1875
3498 1872
3499 1865
3500 1858
3501 1847
3502 1838
3503 1831
3504 1821
3505 1809
3506 1801
3507 1797
3508 1798
3509 1799
3510 1804
3511 1814
3512 1822
3513 1830
3514 1841
3515 1854
3516 1862
3517 1866
3518 1865
3519 1864
3520 1858
3521 1846
3522 1834
3523 1818
3524 1810
3525 1802
3526 1798
3527 1795
3528 1794
3529 1795
3530 1799
3531 1804
3532 1813
3533 1822
3534 1828
3535 1836
3536 1845
3537 1853
3538 1857
3539 1856
3540 1851
3541 1845
3542 1833
3543 1819
3544 1809
3545 1802
3546 1800
3547 1802
3548 1806
3549 1814
3550 1818
3551 1821
3552 1830
3553 1841
3554 1848
3555 1851
3556 1855
3557 1852
3558 1848
3559 1843
3560 1835
3561 1830
3562 1822
3563 1812
3564 1803
3565 1790
3566 1781
3567 1779
3568 1784
3569 1792
3570 1802
3571 1811
3572 1823
3573 1834
3574 1841
3575 1846
3576 1854
3577 1859
3578 1861
3579 1860
3580 1853
3581 1848
3582 1835
3583 1826
3584 1819
3585 1814
3586 1808
3587 1801
3588 1802
3589 1805
3590 1811
3591 1818
3592 1830
3593 1841
3594 1845
3595 1851
3596 1850
3597 1849
3598 1847
3599 1844
3600 1842
3601 1836
3602 1832
3603 1829
3604 1820
3605 1810
3606 1802
3607 1797
3608 1796
3609 1798
3610 1803
3611 1810
3612 1819
3613 1824
3614 1834
3615 1845
3616 1849
3617 1850
3618 1846
3619 1844
3620 1839
3621 1833
3622 1824
3623 1812
3624 1802
3625 1794
3626 1793
3627 1793
3628 1794
3629 1797
3630 1801
3631 1806
3632 1814
3633 1828
3634 1838
3635 1844
3636 1845
3637 1848
3638 1849
3639 1849
3640 1845
3641 1836
3642 1825
3643 1813
3644 1799
3645 1789
3646 1785
3647 1782
3648 1782
3649 1783
3650 1790
3651 1796
3652 1806
3653 1814
3654 1824
3655 1835
3656 1844
3657 1851
3658 1851
3659 1842
3660 1835
3661 1834
3662 1826
3663 1815
3664 1803
3665 1800
3666 1795
3667 1793
3668 1793
3669 1794
3670 1795
3671 1796
3672 1802
3673 1810
3674 1822
3675 1832
3676 1836
3677 1837
3678 1836
3679 1833
3680 1828
3681 1822
3682 1810
3683 1804
3684 1798
3685 1794
3686 1791
3687 1791
3688 1790
3689 1795
3690 1803
3691 1810
3692 1825
3693 1835
3694 1845
3695 1854
3696 1858
3697 1860
3698 1857
3699 1856
3700 1853
3701 1848
3702 1839
3703 1831
3704 1828
3705 1823
3706 1814
3707 1805
3708 1805
3709 1810
3710 1820
3711 1826
3712 1837
3713 1849
3714 1857
3715 1864
3716 1869
3717 1870
3718 1872
3719 1869
3720 1864
3721 1861
3722 1853
3723 1847
3724 1840
3725 1832
3726 1829
3727 1825
3728 1826
3729 1828
3730 1834
3731 1838
3732 1848
3733 1854
3734 1865
3735 1873
3736 1876
3737 1880
3738 1880
3739 1876
3740 1866
3741 1860
3742 1851
3743 1837
3744 1824
3745 1813
3746 1801
3747 1791
3748 1790
3749 1791
3750 1792
3751 1798
3752 1809
3753 1821
3754 1830
3755 1834
3756 1838
3757 1845
3758 1845
3759 1839
3760 1834
3761 1833
3762 1824
3763 1813
3764 1802
3765 1793
3766 1785
3767 1781
3768 1777
3769 1774
3770 1775
3771 1778
3772 1788
3773 1799
3774 1809
3775 1819
3776 1827
3777 1830
3778 1827
3779 1823
3780 1819
3781 1811
3782 1803
3783 1796
3784 1788
3785 1780
3786 1772
3787 1766
3788 1768
3789 1776
3790 1782
3791 1789
3792 1801
3793 1813
3794 1822
3795 1829
3796 1833
3797 1834
3798 1834
3799 1832
3800 1825
3801 1815
3802 1803
3803 1796
3804 1791
3805 1781
3806 1772
3807 1766
3808 1763
3809 1763
3810 1763
3811 1761
3812 1764
3813 1774
3814 1786
3815 1802
3816 1811
3817 1816
3818 1817
3819 1817
3820 1824
3821 1829
3822 1831
3823 1834
3824 1840
3825 1842
3826 1848
3827 1858
3828 1873
3829 1889
3830 1907
3831 1925
3832 1952
3833 1982
3834 2013
3835 2041
3836 2071
3837 2094
3838 2118
3839 2134
3840 2133
3841 2128
3842 2119
3843 2108
3844 2093
3845 2075
3846 2052
3847 2029
3848 2005
3849 1977
3850 1950
3851 1929
3852 1913
3853 1894
3854 1872
3855 1847
3856 1825
3857 1812
3858 1804
3859 1794
3860 1788
3861 1786
3862 1777
3863 1776
3864 1776
3865 1774
3866 1776
3867 1775
3868 1774
3869 1774
3870 1777
3871 1786
3872 1798
3873 1811
3874 1824
3875 1834
3876 1838
3877 1839
3878 1836
3879 1829
3880 1819
3881 1819
3882 1814
3883 1805
3884 1797
3885 1790
3886 1787
3887 1784
3888 1785
3889 1792
3890 1798
3891 1803
3892 1812
3893 1821
3894 1829
3895 1836
3896 1839
3897 1837
3898 1837
3899 1835
3900 1831
3901 1828
3902 1820
3903 1812
3904 1802
3905 1794
3906 1789
3907 1784
3908 1787
3909 1791
3910 1801
3911 1809
3912 1820
3913 1826
3914 1832
3915 1839
3916 1846
3917 1851
3918 1853
3919 1852
3920 1848
3921 1844
3922 1833
3923 1823
3924 1812
3925 1800
3926 1792
3927 1789
3928 1789
3929 1794
3930 1804
3931 1811
3932 1817
3933 1823
3934 1830
3935 1839
3936 1846
3937 1849
3938 1848
3939 1845
3940 1843
3941 1841
3942 1831
3943 1821
3944 1812
3945 1803
3946 1799
3947 1802
3948 1806
3949 1807
3950 1812
3951 1819
3952 1830
3953 1841
3954 1848
3955 1856
3956 1859
3957 1859
3958 1855
3959 1850
3960 1842
3961 1836
3962 1830
3963 1822
3964 1816
3965 1808
3966 1802
3967 1799
3968 1802
3969 1809
3970 1818
3971 1826
3972 1840
3973 1850
3974 1859
3975 1868
3976 1874
3977 1876
3978 1873
3979 1867
3980 1862
3981 1855
3982 1844
3983 1833
3984 1825
3985 1819
3986 1815
3987 1815
3988 1816
3989 1816
3990 1821
3991 1830
3992 1844
3993 1854
3994 1860
3995 1868
3996 1873
3997 1872
3998 1868
3999 1865
4000 1861
4001 1859
4002 1854
4003 1846
4004 1841
4005 1832
4006 1824
4007 1819
4008 1822
4009 1824
4010 1829
4011 1837
4012 1848
4013 1858
4014 1865
4015 1876
4016 1883
4017 1887
4018 1886
4019 1883
4020 1876
4021 1871
4022 1865
4023 1855
4024 1846
4025 1836
4026 1830
4027 1829
4028 1834
4029 1843
4030 1850
4031 1860
4032 1871
4033 1882
4034 1892
4035 1897
4036 1899
4037 1901
4038 1902
4039 1902
4040 1899
4041 1896
4042 1881
4043 1866
4044 1850
4045 1840
4046 1835
4047 1835
4048 1835
4049 1837
4050 1842
4051 1849
4052 1860
4053 1869
4054 1876
4055 1883
4056 1890
4057 1893
4058 1896
4059 1896
4060 1890
4061 1886
4062 1877
4063 1867
4064 1856
4065 1847
4066 1843
4067 1841
4068 1843
4069 1848
4070 1854
4071 1863
4072 1875
4073 1887
4074 1898
4075 1906
4076 1910
4077 1911
4078 1907
4079 1905
4080 1902
4081 1893
4082 1880
4083 1870
4084 1860
4085 1850
4086 1843
4087 1839
4088 1839
4089 1843
4090 1853
4091 1862
4092 1868
4093 1872
4094 1875
4095 1880
4096 1884
4097 1885
4098 1884
4099 1880
4100 1873
4101 1867
4102 1856
4103 1846
4104 1837
4105 1828
4106 1822
4107 1821
4108 1824
4109 1829
4110 1836
4111 1843
4112 1851
4113 1860
4114 1867
4115 1874
4116 1880
4117 1882
4118 1879
4119 1874
4120 1866
4121 1858
4122 1848
4123 1837
4124 1825
4125 1815
4126 1808
4127 1806
4128 1810
4129 1815
4130 1820
4131 1827
4132 1840
4133 1853
4134 1865
4135 1873
4136 1879
4137 1880
4138 1878
4139 1877
4140 1873
4141 1869
4142 1860
4143 1849
4144 1841
4145 1834
4146 1832
4147 1834
4148 1836
4149 1842
4150 1847
4151 1848
4152 1852
4153 1858
4154 1868
4155 1878
4156 1882
4157 1882
4158 1878
4159 1874
4160 1869
4161 1866
4162 1854
4163 1845
4164 1840
4165 1838
4166 1838
4167 1837
4168 1838
4169 1838
4170 1844
4171 1852
4172 1862
4173 1871
4174 1883
4175 1893
4176 1898
4177 1896
4178 1890
4179 1882
4180 1876
4181 1869
4182 1859
4183 1847
4184 1834
4185 1825
4186 1819
4187 1818
4188 1820
4189 1829
4190 1842
4191 1850
4192 1859
4193 1866
4194 1876
4195 1888
4196 1893
4197 1892
4198 1891
4199 1887
4200 1880
4201 1875
4202 1861
4203 1848
4204 1837
4205 1829
4206 1825
4207 1825
4208 1830
4209 1836
4210 1843
4211 1848
4212 1860
4213 1873
4214 1883
4215 1891
4216 1893
4217 1892
4218 1888
4219 1886
4220 1886
4221 1882
4222 1868
4223 1852
4224 1840
4225 1830
4226 1824
4227 1823
4228 1827
4229 1835
4230 1843
4231 1851
4232 1860
4233 1868
4234 1878
4235 1888
4236 1892
4237 1893
4238 1892
4239 1888
4240 1878
4241 1869
4242 1861
4243 1851
4244 1843
4245 1837
4246 1831
4247 1826
4248 1828
4249 1834
4250 1845
4251 1855
4252 1866
4253 1873
4254 1883
4255 1892
4256 1895
4257 1895
4258 1890
4259 1882
4260 1874
4261 1867
4262 1857
4263 1850
4264 1840
4265 1833
4266 1828
4267 1824
4268 1822
4269 1824
4270 1830
4271 1839
4272 1851
4273 1861
4274 1871
4275 1883
4276 1891
4277 1896
4278 1895
4279 1890
4280 1886
4281 1883
4282 1876
4283 1865
4284 1852
4285 1839
4286 1832
4287 1834
4288 1836
4289 1841
4290 1847
4291 1850
4292 1858
4293 1868
4294 1878
4295 1887
4296 1894
4297 1898
4298 1900
4299 1899
4300 1897
4301 1896
4302 1887
4303 1880
4304 1873
4305 1866
4306 1863
4307 1864
4308 1868
4309 1875
4310 1881
4311 1889
4312 1899
4313 1905
4314 1911
4315 1922
4316 1926
4317 1930
4318 1931
4319 1930
4320 1926
4321 1922
4322 1914
4323 1905
4324 1897
4325 1885
4326 1881
4327 1880
4328 1882
4329 1884
4330 1887
4331 1894
4332 1902
4333 1911
4334 1916
4335 1923
4336 1927
4337 1924
4338 1919
4339 1913
4340 1905
4341 1894
4342 1879
4343 1865
4344 1853
4345 1840
4346 1830
4347 1825
4348 1824
4349 1825
4350 1828
4351 1834
4352 1843
4353 1854
4354 1865
4355 1872
4356 1875
4357 1876
4358 1871
4359 1867
4360 1864
4361 1861
4362 1852
4363 1842
4364 1833
4365 1826
4366 1821
4367 1820
4368 1823
4369 1831
4370 1837
4371 1842
4372 1851
4373 1855
4374 1860
4375 1866
4376 1871
4377 1873
4378 1873
4379 1867
4380 1857
4381 1850
4382 1844
4383 1836
4384 1828
4385 1819
4386 1816
4387 1816
4388 1821
4389 1826
4390 1829
4391 1834
4392 1843
4393 1851
4394 1859
4395 1866
4396 1873
4397 1874
4398 1871
4399 1866
4400 1857
4401 1848
4402 1837
4403 1823
4404 1812
4405 1802
4406 1797
4407 1794
4408 1798
4409 1807
4410 1816
4411 1827
4412 1843
4413 1858
4414 1874
4415 1889
4416 1903
4417 1915
4418 1924
4419 1930
4420 1931
4421 1931
4422 1933
4423 1939
4424 1942
4425 1946
4426 1955
4427 1971
4428 1989
4429 2013
4430 2042
4431 2077
4432 2115
4433 2152
4434 2178
4435 2188
4436 2190
4437 2189
4438 2182
4439 2169
4440 2150
4441 2124
4442 2092
4443 2059
4444 2022
4445 1983
4446 1948
4447 1919
4448 1890
4449 1861
4450 1834
4451 1817
4452 1811
4453 1812
4454 1813
4455 1821
4456 1829
4457 1833
4458 1833
4459 1833
4460 1834
4461 1830
4462 1823
4463 1819
4464 1815
4465 1811
4466 1810
4467 1811
4468 1814
4469 1821
4470 1829
4471 1840
4472 1851
4473 1859
4474 1869
4475 1878
4476 1882
4477 1884
4478 1887
4479 1886
4480 1877
4481 1866
4482 1855
4483 1846
4484 1837
4485 1829
4486 1825
4487 1821
4488 1825
4489 1830
4490 1835
4491 1843
4492 1850
4493 1857
4494 1865
4495 1874
4496 1876
4497 1874
4498 1872
4499 1866
4500 1863
4501 1860
4502 1850
4503 1841
4504 1831
4505 1828
4506 1825
4507 1821
4508 1824
4509 1829
4510 1832
4511 1835
4512 1847
4513 1857
4514 1868
4515 1873
4516 1875
4517 1873
4518 1869
4519 1866
4520 1867
4521 1860
4522 1848
4523 1840
4524 1834
4525 1830
4526 1826
4527 1823
4528 1825
4529 1830
4530 1837
4531 1845
4532 1857
4533 1868
4534 1880
4535 1888
4536 1892
4537 1892
4538 1890
4539 1882
4540 1875
4541 1871
4542 1863
4543 1851
4544 1838
4545 1832
4546 1830
4547 1830
4548 1831
4549 1834
4550 1839
4551 1848
4552 1862
4553 1874
4554 1882
4555 1889
4556 1895
4557 1894
4558 1889
4559 1881
4560 1873
4561 1869
4562 1857
4563 1849
4564 1843
4565 1836
4566 1831
4567 1832
4568 1837
4569 1843
4570 1853
4571 1860
4572 1868
4573 1877
4574 1882
4575 1888
4576 1895
4577 1899
4578 1899
4579 1894
4580 1887
4581 1879
4582 1870
4583 1864
4584 1856
4585 1850
4586 1842
4587 1839
4588 1840
4589 1848
4590 1857
4591 1863
4592 1871
4593 1883
4594 1893
4595 1902
4596 1905
4597 1904
4598 1903
4599 1901
4600 1899
4601 1895
4602 1885
4603 1875
4604 1865
4605 1859
4606 1854
4607 1853
4608 1855
4609 1859
4610 1864
4611 1874
4612 1882
4613 1892
4614 1902
4615 1910
4616 1914
4617 1915
4618 1915
4619 1914
4620 1910
4621 1899
4622 1886
4623 1876
4624 1870
4625 1865
4626 1862
4627 1860
4628 1861
4629 1867
4630 1871
4631 1875
4632 1886
4633 1899
4634 1907
4635 1913
4636 1915
4637 1915
4638 1915
4639 1910
4640 1903
4641 1895
4642 1884
4643 1875
4644 1868
4645 1859
4646 1854
4647 1850
4648 1851
4649 1854
4650 1861
4651 1869
4652 1882
4653 1893
4654 1904
4655 1910
4656 1915
4657 1917
4658 1918
4659 1917
4660 1917
4661 1912
4662 1905
4663 1894
4664 1884
4665 1878
4666 1873
4667 1870
4668 1871
4669 1874
4670 1878
4671 1880
4672 1888
4673 1898
4674 1907
4675 1911
4676 1910
4677 1910
4678 1909
4679 1903
4680 1901
4681 1893
4682 1879
4683 1867
4684 1859
4685 1858
4686 1858
4687 1858
4688 1861
4689 1864
4690 1869
4691 1875
4692 1883
4693 1892
4694 1899
4695 1907
4696 1913
4697 1916
4698 1911
4699 1902
4700 1893
4701 1883
4702 1874
4703 1868
4704 1857
4705 1846
4706 1841
4707 1839
4708 1842
4709 1847
4710 1854
4711 1861
4712 1871
4713 1882
4714 1893
4715 1902
4716 1905
4717 1905
4718 1904
4719 1902
4720 1895
4721 1887
4722 1879
4723 1871
4724 1857
4725 1847
4726 1843
4727 1843
4728 1846
4729 1850
4730 1857
4731 1867
4732 1877
4733 1886
4734 1896
4735 1906
4736 1909
4737 1909
4738 1905
4739 1900
4740 1892
4741 1884
4742 1875
4743 1868
4744 1859
4745 1851
4746 1843
4747 1841
4748 1844
4749 1851
4750 1857
4751 1864
4752 1874
4753 1881
4754 1886
4755 1894
4756 1901
4757 1905
4758 1904
4759 1901
4760 1893
4761 1883
4762 1876
4763 1870
4764 1860
4765 1857
4766 1855
4767 1853
4768 1852
4769 1853
4770 1856
4771 1862
4772 1869
4773 1876
4774 1886
4775 1897
4776 1904
4777 1901
4778 1896
4779 1893
4780 1890
4781 1886
4782 1878
4783 1869
4784 1862
4785 1855
4786 1851
4787 1848
4788 1848
4789 1847
4790 1848
4791 1855
4792 1869
4793 1877
4794 1881
4795 1882
4796 1883
4797 1882
4798 1879
4799 1875
4800 1871
4801 1862
4802 1853
4803 1847
4804 1839
4805 1836
4806 1836
4807 1839
4808 1842
4809 1848
4810 1856
4811 1864
4812 1875
4813 1883
4814 1890
4815 1893
4816 1895
4817 1896
4818 1891
4819 1887
4820 1880
4821 1874
4822 1862
4823 1852
4824 1844
4825 1837
4826 1830
4827 1827
4828 1829
4829 1835
4830 1841
4831 1849
4832 1858
4833 1865
4834 1875
4835 1883
4836 1887
4837 1886
4838 1884
4839 1880
4840 1874
4841 1865
4842 1855
4843 1847
4844 1838
4845 1831
4846 1827
4847 1826
4848 1826
4849 1832
4850 1839
4851 1851
4852 1862
4853 1874
4854 1881
4855 1885
4856 1884
4857 1880
4858 1875
4859 1870
4860 1865
4861 1857
4862 1849
4863 1844
4864 1834
4865 1826
4866 1821
4867 1819
4868 1821
4869 1825
4870 1829
4871 1837
4872 1848
4873 1858
4874 1869
4875 1878
4876 1882
4877 1884
4878 1882
4879 1879
4880 1875
4881 1867
4882 1856
4883 1846
4884 1837
4885 1833
4886 1833
4887 1835
4888 1839
4889 1842
4890 1843
4891 1846
4892 1853
4893 1861
4894 1871
4895 1881
4896 1889
4897 1894
4898 1892
4899 1887
4900 1879
4901 1874
4902 1869
4903 1862
4904 1856
4905 1852
4906 1851
4907 1853
4908 1857
4909 1862
4910 1865
4911 1870
4912 1878
4913 1887
4914 1897
4915 1906
4916 1911
4917 1912
4918 1912
4919 1908
4920 1899
4921 1890
4922 1879
4923 1864
4924 1852
4925 1845
4926 1838
4927 1832
4928 1832
4929 1831
4930 1833
4931 1836
4932 1842
4933 1845
4934 1850
4935 1852
4936 1852
4937 1852
4938 1849
4939 1847
4940 1840
4941 1825
4942 1812
4943 1807
4944 1801
4945 1795
4946 1794
4947 1796
4948 1798
4949 1798
4950 1803
4951 1811
4952 1821
4953 1832
4954 1840
4955 1849
4956 1854
4957 1855
4958 1855
4959 1847
4960 1839
4961 1828
4962 1815
4963 1806
4964 1794
4965 1789
4966 1784
4967 1779
4968 1780
4969 1786
4970 1793
4971 1803
4972 1812
4973 1823
4974 1834
4975 1847
4976 1855
4977 1860
4978 1861
4979 1857
4980 1847
4981 1834
4982 1819
4983 1805
4984 1792
4985 1785
4986 1776
4987 1772
4988 1770
4989 1773
4990 1777
4991 1783
4992 1791
4993 1801
4994 1813
4995 1820
4996 1824
4997 1826
4998 1830
4999 1832
5000 1834
5001 1830
5002 1825
5003 1820
5004 1817
5005 1818
5006 1822
5007 1831
5008 1842
5009 1855
5010 1874
5011 1896
5012 1919
5013 1941
5014 1966
5015 1991
5016 2014
5017 2038
5018 2060
5019 2079
5020 2097
5021 2102
5022 2100
5023 2095
5024 2086
5025 2071
5026 2058
5027 2045
5028 2029
5029 2010
5030 1989
5031 1971
5032 1960
5033 1949
5034 1930
5035 1899
5036 1865
5037 1832
5038 1808
5039 1792
5040 1780
5041 1768
5042 1756
5043 1745
5044 1735
5045 1733
5046 1736
5047 1739
5048 1743
5049 1750
5050 1757
5051 1765
5052 1777
5053 1791
5054 1805
5055 1815
5056 1825
5057 1826
5058 1827
5059 1828
5060 1825
5061 1818
5062 1809
5063 1801
5064 1789
5065 1779
5066 1775
5067 1775
5068 1778
5069 1781
5070 1783
5071 1787
5072 1795
5073 1803
5074 1813
5075 1819
5076 1824
5077 1823
5078 1817
5079 1812
5080 1807
5081 1799
5082 1791
5083 1783
5084 1779
5085 1774
5086 1771
5087 1769
5088 1769
5089 1774
5090 1778
5091 1787
5092 1796
5093 1804
5094 1812
5095 1822
5096 1824
5097 1826
5098 1823
5099 1818
5100 1810
5101 1798
5102 1788
5103 1776
5104 1764
5105 1757
5106 1752
5107 1751
5108 1755
5109 1765
5110 1771
5111 1781
5112 1794
5113 1802
5114 1811
5115 1819
5116 1820
5117 1819
5118 1816
5119 1809
5120 1803
5121 1794
5122 1784
5123 1777
5124 1772
5125 1769
5126 1766
5127 1767
5128 1769
5129 1773
5130 1778
5131 1782
5132 1790
5133 1800
5134 1808
5135 1815
5136 1823
5137 1826
5138 1825
5139 1821
5140 1812
5141 1803
5142 1791
5143 1779
5144 1769
5145 1761
5146 1754
5147 1752
5148 1754
5149 1758
5150 1763
5151 1772
5152 1784
5153 1794
5154 1805
5155 1811
5156 1815
5157 1814
5158 1817
5159 1813
5160 1808
5161 1798
5162 1788
5163 1776
5164 1761
5165 1757
5166 1755
5167 1759
5168 1764
5169 1771
5170 1779
5171 1792
5172 1806
5173 1816
5174 1826
5175 1833
5176 1836
5177 1836
5178 1833
5179 1826
5180 1818
5181 1805
5182 1792
5183 1780
5184 1772
5185 1765
5186 1763
5187 1766
5188 1766
5189 1772
5190 1783
5191 1796
5192 1806
5193 1814
5194 1820
5195 1825
5196 1830
5197 1833
5198 1832
5199 1827
5200 1822
5201 1812
5202 1801
5203 1793
5204 1782
5205 1776
5206 1772
5207 1773
5208 1776
5209 1781
5210 1792
5211 1800
5212 1803
5213 1805
5214 1809
5215 1813
5216 1817
5217 1820
5218 1821
5219 1819
5220 1815
5221 1805
5222 1796
5223 1786
5224 1778
5225 1769
5226 1761
5227 1759
5228 1764
5229 1770
5230 1776
5231 1786
5232 1797
5233 1807
5234 1817
5235 1823
5236 1830
5237 1833
5238 1832
5239 1827
5240 1819
5241 1809
5242 1800
5243 1786
5244 1771
5245 1763
5246 1764
5247 1765
5248 1771
5249 1774
5250 1778
5251 1791
5252 1804
5253 1813
5254 1822
5255 1828
5256 1830
5257 1825
5258 1816
5259 1807
5260 1799
5261 1788
5262 1776
5263 1765
5264 1755
5265 1752
5266 1750
5267 1751
5268 1756
5269 1761
5270 1766
5271 1774
5272 1783
5273 1794
5274 1806
5275 1811
5276 1811
5277 1807
5278 1801
5279 1796
5280 1790
5281 1778
5282 1767
5283 1754
5284 1741
5285 1733
5286 1727
5287 1730
5288 1737
5289 1747
5290 1756
5291 1770
5292 1781
5293 1787
5294 1795
5295 1803
5296 1808
5297 1805
5298 1800
5299 1792
5300 1783
5301 1771
5302 1759
5303 1749
5304 1740
5305 1736
5306 1735
5307 1736
5308 1740
5309 1750
5310 1758
5311 1770
5312 1784
5313 1792
5314 1800
5315 1806
5316 1807
5317 1807
5318 1802
5319 1798
5320 1793
5321 1782
5322 1774
5323 1767
5324 1757
5325 1751
5326 1742
5327 1739
5328 1741
5329 1746
5330 1753
5331 1764
5332 1776
5333 1784
5334 1788
5335 1791
5336 1792
5337 1792
5338 1792
5339 1784
5340 1777
5341 1763
5342 1753
5343 1747
5344 1741
5345 1740
5346 1740
5347 1741
5348 1742
5349 1745
5350 1750
5351 1762
5352 1777
5353 1785
5354 1793
5355 1801
5356 1803
5357 1801
5358 1796
5359 1788
5360 1782
5361 1771
5362 1758
5363 1746
5364 1736
5365 1728
5366 1724
5367 1723
5368 1723
5369 1728
5370 1732
5371 1739
5372 1749
5373 1759
5374 1765
5375 1771
5376 1775
5377 1776
5378 1775
5379 1775
5380 1772
5381 1766
5382 1756
5383 1748
5384 1738
5385 1730
5386 1728
5387 1725
5388 1725
5389 1728
5390 1739
5391 1751
5392 1755
5393 1761
5394 1767
5395 1771
5396 1770
5397 1767
5398 1768
5399 1767
5400 1764
5401 1755
5402 1745
5403 1737
5404 1728
5405 1722
5406 1719
5407 1720
5408 1722
5409 1725
5410 1730
5411 1740
5412 1751
5413 1758
5414 1764
5415 1771
5416 1773
5417 1773
5418 1773
5419 1770
5420 1766
5421 1753
5422 1742
5423 1729
5424 1715
5425 1705
5426 1703
5427 1705
5428 1708
5429 1713
5430 1722
5431 1736
5432 1745
5433 1756
5434 1766
5435 1770
5436 1773
5437 1775
5438 1772
5439 1766
5440 1760
5441 1754
5442 1748
5443 1741
5444 1734
5445 1731
5446 1729
5447 1729
5448 1732
5449 1736
5450 1738
5451 1744
5452 1750
5453 1755
5454 1762
5455 1768
5456 1772
5457 1769
5458 1770
5459 1769
5460 1764
5461 1754
5462 1741
5463 1730
5464 1723
5465 1719
5466 1718
5467 1719
5468 1722
5469 1726
5470 1728
5471 1739
5472 1751
5473 1760
5474 1769
5475 1779
5476 1784
5477 1785
5478 1781
5479 1775
5480 1767
5481 1758
5482 1750
5483 1742
5484 1736
5485 1728
5486 1715
5487 1710
5488 1710
5489 1713
5490 1716
5491 1720
5492 1725
5493 1727
5494 1730
5495 1730
5496 1728
5497 1722
5498 1716
5499 1709
5500 1705
5501 1697
5502 1688
5503 1679
5504 1673
5505 1666
5506 1660
5507 1659
5508 1664
5509 1670
5510 1674
5511 1685
5512 1692
5513 1700
5514 1708
5515 1716
5516 1723
5517 1724
5518 1720
5519 1714
5520 1708
5521 1698
5522 1688
5523 1681
5524 1670
5525 1659
5526 1655
5527 1656
5528 1659
5529 1666
5530 1671
5531 1679
5532 1688
5533 1697
5534 1704
5535 1708
5536 1708
5537 1707
5538 1707
5539 1702
5540 1695
5541 1692
5542 1680
5543 1666
5544 1652
5545 1643
5546 1636
5547 1637
5548 1642
5549 1646
5550 1654
5551 1662
5552 1670
5553 1674
5554 1677
5555 1678
5556 1678
5557 1679
5558 1679
5559 1676
5560 1675
5561 1668
5562 1662
5563 1659
5564 1657
5565 1657
5566 1664
5567 1672
5568 1680
5569 1696
5570 1711
5571 1734
5572 1750
5573 1762
5574 1779
5575 1799
5576 1816
5577 1828
5578 1843
5579 1859
5580 1870
5581 1880
5582 1894
5583 1911
5584 1922
5585 1930
5586 1935
5587 1934
5588 1932
5589 1928
5590 1918
5591 1907
5592 1888
5593 1865
5594 1845
5595 1830
5596 1811
5597 1785
5598 1752
5599 1715
5600 1675
5601 1637
5602 1612
5603 1596
5604 1583
5605 1577
5606 1578
5607 1581
5608 1585
5609 1595
5610 1605
5611 1617
5612 1630
5613 1642
5614 1649
5615 1657
5616 1665
5617 1672
5618 1672
5619 1668
5620 1661
5621 1651
5622 1642
5623 1634
5624 1626
5625 1626
5626 1622
5627 1621
5628 1618
5629 1618
5630 1623
5631 1630
5632 1639
5633 1649
5634 1657
5635 1665
5636 1668
5637 1666
5638 1667
5639 1660
5640 1653
5641 1647
5642 1640
5643 1634
5644 1627
5645 1622
5646 1616
5647 1615
5648 1616
5649 1618
5650 1622
5651 1632
5652 1642
5653 1650
5654 1657
5655 1662
5656 1663
5657 1664
5658 1665
5659 1658
5660 1650
5661 1640
5662 1630
5663 1620
5664 1611
5665 1606
5666 1599
5667 1597
5668 1603
5669 1612
5670 1617
5671 1629
5672 1638
5673 1647
5674 1655
5675 1660
5676 1662
5677 1661
5678 1659
5679 1655
5680 1649
5681 1635
5682 1622
5683 1615
5684 1606
5685 1597
5686 1595
5687 1593
5688 1595
5689 1602
5690 1609
5691 1624
5692 1636
5693 1647
5694 1654
5695 1655
5696 1655
5697 1656
5698 1655
5699 1654
5700 1648
5701 1631
5702 1620
5703 1611
5704 1602
5705 1599
5706 1597
5707 1598
5708 1602
5709 1611
5710 1623
5711 1637
5712 1644
5713 1650
5714 1656
5715 1662
5716 1664
5717 1663
5718 1659
5719 1655
5720 1647
5721 1637
5722 1627
5723 1618
5724 1611
5725 1606
5726 1604
5727 1604
5728 1604
5729 1609
5730 1614
5731 1626
5732 1639
5733 1650
5734 1655
5735 1658
5736 1662
5737 1662
5738 1659
5739 1651
5740 1643
5741 1632
5742 1623
5743 1614
5744 1604
5745 1601
5746 1600
5747 1602
5748 1603
5749 1610
5750 1618
5751 1634
5752 1646
5753 1656
5754 1668
5755 1676
5756 1682
5757 1681
5758 1677
5759 1670
5760 1667
5761 1654
5762 1643
5763 1631
5764 1618
5765 1610
5766 1607
5767 1606
5768 1606
5769 1612
5770 1616
5771 1624
5772 1631
5773 1640
5774 1652
5775 1660
5776 1665
5777 1665
5778 1660
5779 1654
5780 1651
5781 1640
5782 1627
5783 1615
5784 1606
5785 1604
5786 1605
5787 1609
5788 1613
5789 1617
5790 1622
5791 1633
5792 1643
5793 1650
5794 1653
5795 1652
5796 1649
5797 1649
5798 1650
5799 1644
5800 1633
5801 1618
5802 1606
5803 1601
5804 1601
5805 1593
5806 1587
5807 1588
5808 1590
5809 1595
5810 1602
5811 1616
5812 1624
5813 1631
5814 1637
5815 1645
5816 1652
5817 1654
5818 1650
5819 1644
5820 1634
5821 1617
5822 1607
5823 1597
5824 1582
5825 1573
5826 1570
5827 1570
5828 1570
5829 1575
5830 1582
5831 1592
5832 1600
5833 1610
5834 1622
5835 1631
5836 1633
5837 1635
5838 1630
5839 1621
5840 1612
5841 1598
5842 1587
5843 1577
5844 1567
5845 1562
5846 1561
5847 1559
5848 1558
5849 1563
5850 1573
5851 1581
5852 1589
5853 1594
5854 1602
5855 1608
5856 1610
5857 1604
5858 1600
5859 1592
5860 1586
5861 1574
5862 1565
5863 1559
5864 1551
5865 1544
5866 1537
5867 1538
5868 1544
5869 1556
5870 1565
5871 1576
5872 1582
5873 1591
5874 1606
5875 1615
5876 1618
5877 1615
5878 1608
5879 1596
5880 1587
5881 1575
5882 1562
5883 1551
5884 1543
5885 1538
5886 1537
5887 1535
5888 1535
5889 1541
5890 1547
5891 1556
5892 1567
5893 1578
5894 1589
5895 1594
5896 1598
5897 1597
5898 1595
5899 1592
5900 1590
5901 1584
5902 1571
5903 1562
5904 1552
5905 1544
5906 1542
5907 1543
5908 1546
5909 1553
5910 1563
5911 1578
5912 1589
5913 1598
5914 1602
5915 1604
5916 1600
5917 1596
5918 1592
5919 1586
5920 1578
5921 1568
5922 1561
5923 1549
5924 1536
5925 1530
5926 1531
5927 1530
5928 1532
5929 1539
5930 1546
5931 1556
5932 1567
5933 1578
5934 1592
5935 1601
5936 1604
5937 1606
5938 1606
5939 1597
5940 1586
5941 1570
5942 1559
5943 1548
5944 1542
5945 1539
5946 1537
5947 1534
5948 1531
5949 1531
5950 1541
5951 1556
5952 1567
5953 1575
5954 1583
5955 1585
5956 1581
5957 1577
5958 1577
5959 1573
5960 1572
5961 1563
5962 1550
5963 1540
5964 1535
5965 1526
5966 1520
5967 1524
5968 1530
5969 1537
5970 1545
5971 1555
5972 1564
5973 1571
5974 1577
5975 1583
5976 1589
5977 1589
5978 1585
5979 1582
5980 1576
5981 1565
5982 1553
5983 1543
5984 1531
5985 1525
5986 1520
5987 1521
5988 1526
5989 1534
5990 1542
5991 1550
5992 1561
5993 1568
5994 1576
5995 1583
5996 1587
5997 1584
5998 1582
5999 1576
6000 1568
6001 1558
6002 1550
6003 1542
6004 1532
6005 1526
6006 1524
6007 1525
6008 1530
6009 1538
6010 1539
6011 1547
6012 1558
6013 1567
6014 1573
6015 1580
6016 1583
6017 1582
6018 1577
6019 1571
6020 1566
6021 1553
6022 1545
6023 1532
6024 1514
6025 1504
6026 1506
6027 1508
6028 1506
6029 1509
6030 1517
6031 1532
6032 1540
6033 1543
6034 1550
6035 1553
6036 1553
6037 1553
6038 1546
6039 1535
6040 1527
6041 1517
6042 1504
6043 1491
6044 1479
6045 1466
6046 1461
6047 1466
6048 1472
6049 1473
6050 1479
6051 1488
6052 1494
6053 1500
6054 1504
6055 1505
6056 1505
6057 1505
6058 1503
6059 1501
6060 1499
6061 1490
6062 1482
6063 1472
6064 1459
6065 1451
6066 1449
6067 1448
6068 1449
6069 1454
6070 1459
6071 1470
6072 1481
6073 1490
6074 1499
6075 1503
6076 1505
6077 1502
6078 1500
6079 1500
6080 1495
6081 1482
6082 1465
6083 1450
6084 1440
6085 1434
6086 1434
6087 1433
6088 1435
6089 1441
6090 1450
6091 1461
6092 1471
6093 1482
6094 1492
6095 1498
6096 1497
6097 1493
6098 1487
6099 1474
6100 1465
6101 1451
6102 1434
6103 1419
6104 1410
6105 1406
6106 1405
6107 1408
6108 1418
6109 1430
6110 1442
6111 1454
6112 1464
6113 1477
6114 1497
6115 1514
6116 1524
6117 1529
6118 1530
6119 1529
6120 1529
6121 1532
6122 1540
6123 1547
6124 1553
6125 1562
6126 1576
6127 1593
6128 1617
6129 1650
6130 1684
6131 1716
6132 1753
6133 1776
6134 1784
6135 1783
6136 1779
6137 1770
6138 1748
6139 1716
6140 1681
6141 1643
6142 1603
6143 1569
6144 1538
6145 1510
6146 1481
6147 1451
6148 1421
6149 1401
6150 1396
6151 1397
6152 1400
6153 1407
6154 1412
6155 1416
6156 1424
6157 1428
6158 1431
6159 1427
6160 1420
6161 1414
6162 1409
6163 1403
6164 1396
6165 1396
6166 1401
6167 1404
6168 1408
6169 1415
6170 1424
6171 1435
6172 1446
6173 1462
6174 1473
6175 1477
6176 1477
6177 1474
6178 1468
6179 1462
6180 1454
6181 1445
6182 1435
6183 1422
6184 1409
6185 1404
6186 1405
6187 1407
6188 1412
6189 1418
6190 1425
6191 1433
6192 1443
6193 1458
6194 1470
6195 1472
6196 1472
6197 1473
6198 1471
6199 1466
6200 1458
6201 1447
6202 1436
6203 1427
6204 1422
6205 1417
6206 1415
6207 1415
6208 1419
6209 1427
6210 1436
6211 1444
6212 1450
6213 1458
6214 1469
6215 1474
6216 1471
6217 1466
6218 1457
6219 1449
6220 1444
6221 1434
6222 1426
6223 1417
6224 1411
6225 1406
6226 1406
6227 1410
6228 1416
6229 1418
6230 1423
6231 1434
6232 1444
6233 1454
6234 1464
6235 1473
6236 1473
6237 1470
6238 1466
6239 1460
6240 1453
6241 1440
6242 1428
6243 1419
6244 1409
6245 1405
6246 1401
6247 1403
6248 1410
6249 1416
6250 1424
6251 1432
6252 1440
6253 1448
6254 1458
6255 1465
6256 1468
6257 1466
6258 1460
6259 1457
6260 1450
6261 1437
6262 1424
6263 1417
6264 1413
6265 1412
6266 1411
6267 1411
6268 1413
6269 1420
6270 1430
6271 1441
6272 1446
6273 1453
6274 1461
6275 1471
6276 1473
6277 1470
6278 1466
6279 1459
6280 1448
6281 1438
6282 1427
6283 1416
6284 1408
6285 1404
6286 1402
6287 1405
6288 1412
6289 1419
6290 1426
6291 1433
6292 1440
6293 1449
6294 1459
6295 1469
6296 1473
6297 1474
6298 1470
6299 1465
6300 1463
6301 1458
6302 1451
6303 1441
6304 1434
6305 1427
6306 1425
6307 1429
6308 1434
6309 1443
6310 1454
6311 1461
6312 1465
6313 1469
6314 1475
6315 1479
6316 1483
6317 1482
6318 1475
6319 1467
6320 1457
6321 1450
6322 1444
6323 1437
6324 1434
6325 1433
6326 1432
6327 1428
6328 1436
6329 1452
6330 1462
6331 1468
6332 1471
6333 1478
6334 1483
6335 1486
6336 1487
6337 1482
6338 1474
6339 1467
6340 1459
6341 1446
6342 1436
6343 1429
6344 1424
6345 1419
6346 1421
6347 1420
6348 1423
6349 1434
6350 1443
6351 1453
6352 1462
6353 1473
6354 1481
6355 1487
6356 1487
6357 1483
6358 1478
6359 1470
6360 1462
6361 1455
6362 1448
6363 1435
6364 1426
6365 1423
6366 1425
6367 1426
6368 1426
6369 1432
6370 1440
6371 1453
6372 1462
6373 1464
6374 1463
6375 1459
6376 1455
6377 1451
6378 1446
6379 1442
6380 1437
6381 1429
6382 1423
6383 1419
6384 1414
6385 1411
6386 1415
6387 1417
6388 1417
6389 1422
6390 1430
6391 1435
6392 1439
6393 1446
6394 1455
6395 1460
6396 1460
6397 1459
6398 1453
6399 1448
6400 1441
6401 1431
6402 1421
6403 1411
6404 1399
6405 1395
6406 1390
6407 1393
6408 1399
6409 1404
6410 1410
6411 1420
6412 1428
6413 1437
6414 1444
6415 1452
6416 1457
6417 1454
6418 1450
6419 1443
6420 1436
6421 1429
6422 1423
6423 1410
6424 1400
6425 1399
6426 1401
6427 1405
6428 1409
6429 1419
6430 1425
6431 1432
6432 1445
6433 1456
6434 1464
6435 1471
6436 1475
6437 1472
6438 1466
6439 1457
6440 1444
6441 1432
6442 1423
6443 1418
6444 1408
6445 1402
6446 1402
6447 1401
6448 1404
6449 1409
6450 1416
6451 1428
6452 1440
6453 1452
6454 1459
6455 1463
6456 1463
6457 1457
6458 1457
6459 1454
6460 1451
6461 1445
6462 1434
6463 1426
6464 1411
6465 1402
6466 1396
6467 1393
6468 1392
6469 1397
6470 1405
6471 1415
6472 1423
6473 1431
6474 1438
6475 1442
6476 1446
6477 1450
6478 1452
6479 1450
6480 1448
6481 1440
6482 1432
6483 1423
6484 1415
6485 1413
6486 1414
6487 1418
6488 1420
6489 1432
6490 1444
6491 1454
6492 1459
6493 1465
6494 1470
6495 1469
6496 1461
6497 1454
6498 1447
6499 1440
6500 1429
6501 1418
6502 1408
6503 1399
6504 1394
6505 1393
6506 1399
6507 1406
6508 1415
6509 1424
6510 1435
6511 1444
6512 1451
6513 1458
6514 1462
6515 1467
6516 1472
6517 1472
6518 1468
6519 1459
6520 1444
6521 1432
6522 1422
6523 1412
6524 1403
6525 1398
6526 1399
6527 1401
6528 1407
6529 1418
6530 1430
6531 1443
6532 1454
6533 1462
6534 1468
6535 1473
6536 1478
6537 1477
6538 1473
6539 1470
6540 1463
6541 1455
6542 1448
6543 1439
6544 1432
6545 1426
6546 1422
6547 1423
6548 1432
6549 1435
6550 1442
6551 1453
6552 1461
6553 1468
6554 1476
6555 1481
6556 1482
6557 1479
6558 1474
6559 1463
6560 1455
6561 1446
6562 1438
6563 1428
6564 1420
6565 1415
6566 1414
6567 1417
6568 1421
6569 1431
6570 1443
6571 1453
6572 1464
6573 1477
6574 1486
6575 1489
6576 1490
6577 1488
6578 1484
6579 1476
6580 1464
6581 1444
6582 1429
6583 1417
6584 1405
6585 1396
6586 1392
6587 1393
6588 1395
6589 1396
6590 1400
6591 1409
6592 1418
6593 1427
6594 1435
6595 1442
6596 1444
6597 1439
6598 1433
6599 1428
6600 1416
6601 1403
6602 1391
6603 1382
6604 1376
6605 1369
6606 1367
6607 1370
6608 1373
6609 1376
6610 1389
6611 1400
6612 1408
6613 1421
6614 1433
6615 1439
6616 1437
6617 1435
6618 1429
6619 1422
6620 1413
6621 1400
6622 1390
6623 1383
6624 1377
6625 1373
6626 1372
6627 1370
6628 1372
6629 1381
6630 1390
6631 1397
6632 1405
6633 1413
6634 1419
6635 1421
6636 1423
6637 1423
6638 1420
6639 1417
6640 1410
6641 1396
6642 1383
6643 1371
6644 1362
6645 1353
6646 1350
6647 1349
6648 1350
6649 1357
6650 1368
6651 1380
6652 1388
6653 1400
6654 1412
6655 1421
6656 1428
6657 1434
6658 1432
6659 1432
6660 1434
6661 1432
6662 1432
6663 1436
6664 1443
6665 1451
6666 1460
6667 1477
6668 1496
6669 1512
6670 1534
6671 1560
6672 1584
6673 1609
6674 1633
6675 1655
6676 1676
6677 1696
6678 1710
6679 1710
6680 1706
6681 1693
6682 1676
6683 1655
6684 1637
6685 1618
6686 1594
6687 1563
6688 1535
6689 1513
6690 1497
6691 1480
6692 1459
6693 1435
6694 1409
6695 1392
6696 1382
6697 1378
6698 1374
6699 1368
6700 1359
6701 1347
6702 1338
6703 1333
6704 1331
6705 1335
6706 1342
6707 1348
6708 1349
6709 1352
6710 1363
6711 1374
6712 1386
6713 1400
6714 1412
6715 1419
6716 1423
6717 1424
6718 1421
6719 1417
6720 1409
6721 1396
6722 1383
6723 1370
6724 1361
6725 1356
6726 1360
6727 1368
6728 1375
6729 1383
6730 1389
6731 1393
6732 1397
6733 1409
6734 1418
6735 1422
6736 1420
6737 1418
6738 1411
6739 1403
6740 1393
6741 1385
6742 1376
6743 1364
6744 1358
6745 1357
6746 1359
6747 1362
6748 1371
6749 1383
6750 1401
6751 1414
6752 1422
6753 1433
6754 1439
6755 1440
6756 1436
6757 1430
6758 1422
6759 1414
6760 1403
6761 1394
6762 1388
6763 1381
6764 1377
6765 1372
6766 1370
6767 1376
6768 1384
6769 1395
6770 1406
6771 1413
6772 1420
6773 1427
6774 1436
6775 1438
6776 1435
6777 1436
6778 1432
6779 1426
6780 1417
6781 1408
6782 1402
6783 1395
6784 1388
6785 1385
6786 1382
6787 1382
6788 1390
6789 1395
6790 1404
6791 1412
6792 1419
6793 1425
6794 1434
6795 1440
6796 1443
6797 1442
6798 1441
6799 1437
6800 1430
6801 1420
6802 1411
6803 1404
6804 1398
6805 1397
6806 1399
6807 1401
6808 1406
6809 1413
6810 1421
6811 1432
6812 1442
6813 1453
6814 1459
6815 1462
6816 1466
6817 1468
6818 1464
6819 1457
6820 1449
6821 1445
6822 1435
6823 1421
6824 1416
6825 1414
6826 1412
6827 1413
6828 1419
6829 1425
6830 1438
6831 1450
6832 1466
6833 1477
6834 1482
6835 1483
6836 1483
6837 1480
6838 1478
6839 1473
6840 1460
6841 1444
6842 1436
6843 1430
6844 1425
6845 1424
6846 1424
6847 1424
6848 1434
6849 1443
6850 1453
6851 1466
6852 1481
6853 1496
6854 1507
6855 1509
6856 1507
6857 1502
6858 1497
6859 1491
6860 1483
6861 1473
6862 1464
6863 1450
6864 1442
6865 1445
6866 1452
6867 1454
6868 1456
6869 1460
6870 1468
6871 1477
6872 1486
6873 1496
6874 1502
6875 1502
6876 1499
6877 1495
6878 1494
6879 1492
6880 1484
6881 1474
6882 1460
6883 1451
6884 1449
6885 1452
6886 1456
6887 1461
6888 1467
6889 1467
6890 1475
6891 1486
6892 1492
6893 1502
6894 1508
6895 1512
6896 1514
6897 1513
6898 1507
6899 1499
6900 1491
6901 1481
6902 1475
6903 1472
6904 1466
6905 1460
6906 1455
6907 1454
6908 1459
6909 1469
6910 1481
6911 1487
6912 1487
6913 1496
6914 1505
6915 1516
6916 1516
6917 1508
6918 1499
6919 1490
6920 1481
6921 1472
6922 1473
6923 1471
6924 1462
6925 1455
6926 1454
6927 1457
6928 1462
6929 1467
6930 1476
6931 1487
6932 1499
6933 1512
6934 1522
6935 1529
6936 1532
6937 1525
6938 1516
6939 1506
6940 1494
6941 1482
6942 1476
6943 1464
6944 1458
6945 1457
6946 1455
6947 1455
6948 1457
6949 1466
6950 1474
6951 1478
6952 1485
6953 1495
6954 1505
6955 1514
6956 1515
6957 1512
6958 1507
6959 1500
6960 1491
6961 1482
6962 1475
6963 1467
6964 1458
6965 1453
6966 1455
6967 1460
6968 1467
6969 1474
6970 1485
6971 1498
6972 1507
6973 1517
6974 1523
6975 1526
6976 1527
6977 1528
6978 1522
6979 1514
6980 1507
6981 1498
6982 1491
6983 1484
6984 1477
6985 1470
6986 1468
6987 1471
6988 1476
6989 1480
6990 1491
6991 1505
6992 1521
6993 1534
6994 1544
6995 1550
6996 1549
6997 1542
6998 1534
6999 1532
7000 1526
7001 1516
7002 1505
7003 1493
7004 1484
7005 1476
7006 1478
7007 1481
7008 1490
7009 1499
7010 1507
7011 1520
7012 1529
7013 1540
7014 1546
7015 1543
7016 1542
7017 1543
7018 1541
7019 1532
7020 1523
7021 1517
7022 1508
7023 1496
7024 1486
7025 1481
7026 1484
7027 1491
7028 1501
7029 1510
7030 1521
7031 1532
7032 1542
7033 1553
7034 1560
7035 1563
7036 1560
7037 1558
7038 1552
7039 1544
7040 1536
7041 1528
7042 1524
7043 1517
7044 1510
7045 1508
7046 1511
7047 1512
7048 1519
7049 1530
7050 1539
7051 1547
7052 1556
7053 1567
7054 1579
7055 1587
7056 1586
7057 1578
7058 1564
7059 1559
7060 1550
7061 1539
7062 1528
7063 1514
7064 1505
7065 1503
7066 1500
7067 1501
7068 1508
7069 1518
7070 1531
7071 1541
7072 1549
7073 1560
7074 1568
7075 1576
7076 1580
7077 1583
7078 1583
7079 1581
7080 1576
7081 1567
7082 1558
7083 1548
7084 1542
7085 1542
7086 1542
7087 1548
7088 1552
7089 1559
7090 1571
7091 1579
7092 1588
7093 1595
7094 1598
7095 1596
7096 1596
7097 1600
7098 1598
7099 1588
7100 1575
7101 1565
7102 1562
7103 1555
7104 1549
7105 1541
7106 1545
7107 1555
7108 1564
7109 1571
7110 1579
7111 1588
7112 1597
7113 1609
7114 1617
7115 1617
7116 1616
7117 1615
7118 1613
7119 1610
7120 1599
7121 1581
7122 1572
7123 1566
7124 1557
7125 1555
7126 1561
7127 1565
7128 1566
7129 1567
7130 1573
7131 1580
7132 1587
7133 1592
7134 1598
7135 1599
7136 1597
7137 1592
7138 1586
7139 1584
7140 1575
7141 1559
7142 1541
7143 1526
7144 1518
7145 1515
7146 1516
7147 1522
7148 1529
7149 1538
7150 1550
7151 1561
7152 1569
7153 1577
7154 1584
7155 1586
7156 1583
7157 1579
7158 1572
7159 1566
7160 1558
7161 1548
7162 1542
7163 1533
7164 1528
7165 1528
7166 1531
7167 1533
7168 1537
7169 1546
7170 1557
7171 1571
7172 1584
7173 1594
7174 1599
7175 1604
7176 1603
7177 1598
7178 1593
7179 1588
7180 1578
7181 1565
7182 1550
7183 1539
7184 1533
7185 1530
7186 1528
7187 1529
7188 1536
7189 1541
7190 1552
7191 1567
7192 1581
7193 1590
7194 1597
7195 1599
7196 1592
7197 1589
7198 1583
7199 1573
7200 1561
7201 1551
7202 1544
7203 1533
7204 1524
7205 1523
7206 1525
7207 1529
7208 1538
7209 1550
7210 1565
7211 1579
7212 1593
7213 1611
7214 1625
7215 1636
7216 1644
7217 1654
7218 1663
7219 1670
7220 1672
7221 1676
7222 1678
7223 1678
7224 1684
7225 1697
7226 1712
7227 1730
7228 1754
7229 1782
7230 1814
7231 1845
7232 1873
7233 1896
7234 1906
7235 1910
7236 1905
7237 1894
7238 1877
7239 1856
7240 1827
7241 1794
7242 1758
7243 1721
7244 1688
7245 1662
7246 1636
7247 1616
7248 1594
7249 1574
7250 1565
7251 1565
7252 1564
7253 1567
7254 1568
7255 1572
7256 1582
7257 1587
7258 1585
7259 1586
7260 1582
7261 1576
7262 1564
7263 1556
7264 1552
7265 1552
7266 1553
7267 1553
7268 1561
7269 1567
7270 1581
7271 1594
7272 1605
7273 1619
7274 1632
7275 1639
7276 1637
7277 1633
7278 1626
7279 1619
7280 1608
7281 1596
7282 1586
7283 1578
7284 1572
7285 1571
7286 1574
7287 1577
7288 1581
7289 1585
7290 1594
7291 1604
7292 1616
7293 1626
7294 1631
7295 1633
7296 1634
7297 1637
7298 1635
7299 1628
7300 1619
7301 1611
7302 1602
7303 1592
7304 1585
7305 1588
7306 1596
7307 1598
7308 1609
7309 1617
7310 1627
7311 1635
7312 1642
7313 1650
7314 1654
7315 1658
7316 1654
7317 1647
7318 1642
7319 1637
7320 1627
7321 1616
7322 1610
7323 1602
7324 1600
7325 1598
7326 1596
7327 1597
7328 1606
7329 1615
7330 1627
7331 1635
7332 1645
7333 1655
7334 1661
7335 1664
7336 1660
7337 1654
7338 1649
7339 1645
7340 1637
7341 1629
7342 1623
7343 1614
7344 1608
7345 1605
7346 1606
7347 1609
7348 1613
7349 1619
7350 1630
7351 1644
7352 1654
7353 1664
7354 1666
7355 1665
7356 1664
7357 1662
7358 1656
7359 1650
7360 1641
7361 1635
7362 1627
7363 1621
7364 1617
7365 1617
7366 1616
7367 1616
7368 1620
7369 1627
7370 1639
7371 1651
7372 1661
7373 1671
7374 1678
7375 1681
7376 1682
7377 1681
7378 1679
7379 1675
7380 1666
7381 1657
7382 1652
7383 1643
7384 1636
7385 1635
7386 1634
7387 1635
7388 1639
7389 1643
7390 1650
7391 1659
7392 1671
7393 1682
7394 1691
7395 1696
7396 1695
7397 1693
7398 1686
7399 1679
7400 1668
7401 1660
7402 1655
7403 1647
7404 1644
7405 1647
7406 1648
7407 1652
7408 1661
7409 1669
7410 1677
7411 1687
7412 1697
7413 1706
7414 1715
7415 1720
7416 1717
7417 1714
7418 1707
7419 1700
7420 1688
7421 1678
7422 1672
7423 1664
7424 1661
7425 1658
7426 1658
7427 1658
7428 1662
7429 1669
7430 1680
7431 1690
7432 1700
7433 1714
7434 1723
7435 1721
7436 1718
7437 1720
7438 1713
7439 1703
7440 1690
7441 1681
7442 1673
7443 1667
7444 1663
7445 1666
7446 1672
7447 1678
7448 1683
7449 1685
7450 1694
7451 1702
7452 1708
7453 1713
7454 1719
7455 1722
7456 1720
7457 1718
7458 1708
7459 1698
7460 1688
7461 1681
7462 1673
7463 1667
7464 1663
7465 1660
7466 1659
7467 1661
7468 1666
7469 1673
7470 1685
7471 1695
7472 1703
7473 1712
7474 1720
7475 1723
7476 1719
7477 1715
7478 1712
7479 1709
7480 1696
7481 1682
7482 1669
7483 1657
7484 1648
7485 1646
7486 1647
7487 1651
7488 1658
7489 1665
7490 1677
7491 1689
7492 1700
7493 1708
7494 1715
7495 1720
7496 1721
7497 1719
7498 1712
7499 1701
7500 1687
7501 1673
7502 1661
7503 1651
7504 1648
7505 1648
7506 1650
7507 1653
7508 1660
7509 1665
7510 1673
7511 1685
7512 1697
7513 1705
7514 1710
7515 1713
7516 1713
7517 1708
7518 1701
7519 1692
7520 1679
7521 1668
7522 1662
7523 1655
7524 1650
7525 1650
7526 1655
7527 1658
7528 1662
7529 1667
7530 1679
7531 1689
7532 1699
7533 1705
7534 1712
7535 1714
7536 1712
7537 1707
7538 1699
7539 1693
7540 1681
7541 1673
7542 1667
7543 1660
7544 1656
7545 1652
7546 1649
7547 1652
7548 1661
7549 1671
7550 1685
7551 1697
7552 1707
7553 1718
7554 1725
7555 1725
7556 1726
7557 1722
7558 1715
7559 1706
7560 1691
7561 1676
7562 1667
7563 1660
7564 1659
7565 1661
7566 1664
7567 1667
7568 1675
7569 1686
7570 1698
7571 1708
7572 1715
7573 1723
7574 1727
7575 1727
7576 1724
7577 1723
7578 1721
7579 1715
7580 1703
7581 1694
7582 1687
7583 1681
7584 1680
7585 1677
7586 1674
7587 1682
7588 1693
7589 1698
7590 1706
7591 1714
7592 1721
7593 1726
7594 1727
7595 1726
7596 1720
7597 1715
7598 1712
7599 1706
7600 1699
7601 1696
7602 1690
7603 1683
7604 1676
7605 1674
7606 1674
7607 1674
7608 1678
7609 1688
7610 1701
7611 1713
7612 1723
7613 1734
7614 1740
7615 1741
7616 1738
7617 1731
7618 1724
7619 1719
7620 1710
7621 1700
7622 1688
7623 1680
7624 1674
7625 1667
7626 1665
7627 1668
7628 1675
7629 1684
7630 1694
7631 1705
7632 1714
7633 1724
7634 1730
7635 1734
7636 1735
7637 1733
7638 1727
7639 1718
7640 1706
7641 1695
7642 1688
7643 1680
7644 1674
7645 1673
7646 1678
7647 1685
7648 1697
7649 1705
7650 1711
7651 1717
7652 1727
7653 1734
7654 1736
7655 1736
7656 1733
7657 1728
7658 1722
7659 1718
7660 1710
7661 1701
7662 1692
7663 1685
7664 1682
7665 1678
7666 1677
7667 1680
7668 1686
7669 1694
7670 1703
7671 1711
7672 1720
7673 1731
7674 1737
7675 1738
7676 1736
7677 1736
7678 1731
7679 1724
7680 1715
7681 1711
7682 1705
7683 1697
7684 1688
7685 1684
7686 1687
7687 1688
7688 1692
7689 1702
7690 1713
7691 1722
7692 1731
7693 1741
7694 1748
7695 1749
7696 1744
7697 1737
7698 1735
7699 1730
7700 1718
7701 1711
7702 1703
7703 1696
7704 1691
7705 1691
7706 1695
7707 1699
7708 1706
7709 1716
7710 1727
7711 1738
7712 1751
7713 1761
7714 1767
7715 1767
7716 1767
7717 1768
7718 1766
7719 1761
7720 1754
7721 1749
7722 1740
7723 1732
7724 1728
7725 1727
7726 1725
7727 1722
7728 1724
7729 1728
7730 1738
7731 1748
7732 1757
7733 1766
7734 1774
7735 1777
7736 1779
7737 1779
7738 1773
7739 1762
7740 1749
7741 1737
7742 1726
7743 1718
7744 1708
7745 1699
7746 1695
7747 1692
7748 1696
7749 1699
7750 1707
7751 1715
7752 1722
7753 1728
7754 1730
7755 1731
7756 1727
7757 1720
7758 1717
7759 1713
7760 1702
7761 1689
7762 1677
7763 1670
7764 1665
7765 1664
7766 1663
7767 1666
7768 1673
7769 1683
7770 1694
7771 1706
7772 1716
7773 1724
7774 1730
7775 1729
7776 1726
7777 1720
7778 1712
7779 1705
7780 1695
7781 1683
7782 1674
7783 1668
7784 1665
7785 1667
7786 1671
7787 1673
7788 1675
7789 1681
7790 1692
7791 1700
7792 1709
7793 1718
7794 1721
7795 1720
7796 1717
7797 1716
7798 1714
7799 1706
7800 1694
7801 1685
7802 1677
7803 1670
7804 1664
7805 1663
7806 1661
7807 1660
7808 1659
7809 1662
7810 1669
7811 1677
7812 1688
7813 1699
7814 1708
7815 1716
7816 1722
7817 1723
7818 1720
7819 1714
7820 1710
7821 1711
7822 1716
7823 1719
7824 1723
7825 1728
7826 1739
7827 1753
7828 1774
7829 1796
7830 1819
7831 1840
7832 1864
7833 1891
7834 1916
7835 1939
7836 1962
7837 1985
7838 2006
7839 2018
7840 2014
7841 2006
7842 1999
7843 1988
7844 1971
7845 1954
7846 1940
7847 1922
7848 1901
7849 1878
7850 1858
7851 1838
7852 1822
7853 1806
7854 1783
7855 1753
7856 1720
7857 1691
7858 1671
7859 1660
7860 1652
7861 1644
7862 1635
7863 1630
7864 1627
7865 1626
7866 1631
7867 1635
7868 1641
7869 1651
7870 1667
7871 1682
7872 1696
7873 1707
7874 1710
7875 1710
7876 1708
7877 1709
7878 1704
7879 1703
7880 1698
7881 1692
7882 1685
7883 1676
7884 1670
7885 1668
7886 1669
7887 1675
7888 1683
7889 1686
7890 1695
7891 1702
7892 1708
7893 1714
7894 1718
7895 1719
7896 1722
7897 1723
7898 1716
7899 1710
7900 1700
7901 1690
7902 1682
7903 1676
7904 1672
7905 1669
7906 1669
7907 1672
7908 1678
7909 1683
7910 1692
7911 1702
7912 1712
7913 1720
7914 1726
7915 1730
7916 1730
7917 1727
7918 1722
7919 1717
7920 1707
7921 1696
7922 1687
7923 1678
7924 1675
7925 1676
7926 1681
7927 1684
7928 1684
7929 1687
7930 1695
7931 1703
7932 1715
7933 1721
7934 1721
7935 1723
7936 1724
7937 1724
7938 1718
7939 1711
7940 1704
7941 1694
7942 1684
7943 1676
7944 1668
7945 1666
7946 1670
7947 1676
7948 1683
7949 1692
7950 1704
7951 1712
7952 1721
7953 1730
7954 1734
7955 1732
7956 1728
7957 1727
7958 1727
7959 1720
7960 1711
7961 1702
7962 1694
7963 1686
7964 1680
7965 1674
7966 1671
7967 1674
7968 1676
7969 1682
7970 1691
7971 1701
7972 1710
7973 1717
7974 1724
7975 1726
7976 1725
7977 1726
7978 1723
7979 1716
7980 1708
7981 1702
7982 1696
7983 1686
7984 1680
7985 1676
7986 1678
7987 1683
7988 1687
7989 1691
7990 1701
7991 1711
7992 1718
7993 1722
7994 1724
7995 1726
7996 1726
7997 1721
7998 1715
7999 1710
8000 1701
8001 1692
8002 1687
8003 1683
8004 1680
8005 1680
8006 1684
8007 1691
8008 1697
8009 1703
8010 1711
8011 1721
8012 1731
8013 1740
8014 1746
8015 1749
8016 1750
8017 1745
8018 1738
8019 1729
8020 1717
8021 1706
8022 1695
8023 1687
8024 1683
8025 1683
8026 1686
8027 1690
8028 1698
8029 1705
8030 1713
8031 1725
8032 1737
8033 1749
8034 1756
8035 1755
8036 1756
8037 1754
8038 1746
8039 1737
8040 1724
8041 1711
8042 1699
8043 1692
8044 1688
8045 1685
8046 1686
8047 1692
8048 1702
8049 1711
8050 1722
8051 1730
8052 1737
8053 1744
8054 1748
8055 1748
8056 1746
8057 1745
8058 1740
8059 1730
8060 1718
8061 1706
8062 1695
8063 1687
8064 1681
8065 1681
8066 1685
8067 1692
8068 1698
8069 1702
8070 1711
8071 1721
8072 1731
8073 1739
8074 1744
8075 1745
8076 1742
8077 1738
8078 1732
8079 1723
8080 1713
8081 1704
8082 1696
8083 1689
8084 1688
8085 1688
8086 1690
8087 1695
8088 1699
8089 1704
8090 1712
8091 1719
8092 1725
8093 1727
8094 1731
8095 1728
8096 1720
8097 1714
8098 1710
8099 1704
8100 1695
8101 1686
8102 1677
8103 1671
8104 1670
8105 1670
8106 1676
8107 1681
8108 1686
8109 1689
8110 1697
8111 1706
8112 1714
8113 1718
8114 1722
8115 1722
8116 1720
8117 1717
8118 1710
8119 1699
8120 1685
8121 1675
8122 1668
8123 1661
8124 1658
8125 1659
8126 1662
8127 1668
8128 1675
8129 1685
8130 1695
8131 1704
8132 1713
8133 1718
8134 1723
8135 1726
8136 1723
8137 1717
8138 1713
8139 1709
8140 1699
8141 1689
8142 1677
8143 1667
8144 1660
8145 1656
8146 1660
8147 1664
8148 1670
8149 1679
8150 1687
8151 1695
8152 1703
8153 1713
8154 1717
8155 1717
8156 1715
8157 1711
8158 1705
8159 1696
8160 1686
8161 1676
8162 1668
8163 1663
8164 1661
8165 1665
8166 1671
8167 1678
8168 1686
8169 1692
8170 1702
8171 1710
8172 1715
8173 1719
8174 1719
8175 1718
8176 1719
8177 1714
8178 1710
8179 1705
8180 1694
8181 1682
8182 1673
8183 1669
8184 1665
8185 1664
8186 1664
8187 1668
8188 1674
8189 1682
8190 1695
8191 1706
8192 1714
8193 1720
8194 1720
8195 1719
8196 1717
8197 1713
8198 1707
8199 1700
8200 1691
8201 1680
8202 1673
8203 1667
8204 1665
8205 1665
8206 1667
8207 1667
8208 1671
8209 1676
8210 1685
8211 1697
8212 1710
8213 1714
8214 1715
8215 1714
8216 1711
8217 1706
8218 1700
8219 1696
8220 1685
8221 1670
8222 1662
8223 1658
8224 1654
8225 1651
8226 1653
8227 1655
8228 1661
8229 1669
8230 1679
8231 1689
8232 1699
8233 1704
8234 1707
8235 1711
8236 1711
8237 1706
8238 1699
8239 1690
8240 1679
8241 1670
8242 1663
8243 1655
8244 1651
8245 1648
8246 1647
8247 1651
8248 1657
8249 1665
8250 1675
8251 1683
8252 1689
8253 1695
8254 1700
8255 1702
8256 1701
8257 1699
8258 1695
8259 1688
8260 1678
8261 1670
8262 1660
8263 1651
8264 1647
8265 1650
8266 1649
8267 1649
8268 1649
8269 1656
8270 1665
8271 1674
8272 1685
8273 1692
8274 1693
8275 1693
8276 1691
8277 1688
8278 1684
8279 1677
8280 1671
8281 1664
8282 1655
8283 1647
8284 1642
8285 1640
8286 1642
8287 1646
8288 1650
8289 1655
8290 1662
8291 1669
8292 1677
8293 1679
8294 1680
8295 1680
8296 1681
8297 1680
8298 1678
8299 1672
8300 1661
8301 1649
8302 1635
8303 1627
8304 1623
8305 1627
8306 1629
8307 1633
8308 1639
8309 1648
8310 1658
8311 1665
8312 1674
8313 1680
8314 1684
8315 1686
8316 1686
8317 1680
8318 1674
8319 1669
8320 1660
8321 1652
8322 1644
8323 1636
8324 1630
8325 1627
8326 1630
8327 1635
8328 1638
8329 1646
8330 1653
8331 1659
8332 1668
8333 1678
8334 1683
8335 1686
8336 1684
8337 1681
8338 1674
8339 1666
8340 1656
8341 1649
8342 1643
8343 1637
8344 1629
8345 1626
8346 1628
8347 1632
8348 1637
8349 1647
8350 1659
8351 1665
8352 1668
8353 1670
8354 1673
8355 1674
8356 1673
8357 1669
8358 1663
8359 1656
8360 1644
8361 1633
8362 1621
8363 1612
8364 1605
8365 1604
8366 1609
8367 1615
8368 1624
8369 1636
8370 1646
8371 1655
8372 1664
8373 1672
8374 1678
8375 1680
8376 1678
8377 1675
8378 1671
8379 1660
8380 1645
8381 1633
8382 1620
8383 1613
8384 1611
8385 1609
8386 1609
8387 1613
8388 1620
8389 1629
8390 1637
8391 1645
8392 1652
8393 1658
8394 1662
8395 1665
8396 1665
8397 1662
8398 1653
8399 1645
8400 1635
8401 1625
8402 1616
8403 1607
8404 1602
8405 1602
8406 1604
8407 1610
8408 1617
8409 1628
8410 1638
8411 1644
8412 1654
8413 1662
8414 1667
8415 1665
8416 1661
8417 1657
8418 1652
8419 1645
8420 1633
8421 1622
8422 1610
8423 1600
8424 1595
8425 1594
8426 1595
8427 1600
8428 1607
8429 1618
8430 1631
8431 1642
8432 1653
8433 1660
8434 1664
8435 1664
8436 1660
8437 1651
8438 1642
8439 1633
8440 1623
8441 1616
8442 1609
8443 1602
8444 1597
8445 1596
8446 1595
8447 1600
8448 1609
8449 1617
8450 1625
8451 1635
8452 1644
8453 1648
8454 1651
8455 1652
8456 1651
8457 1646
8458 1642
8459 1631
8460 1621
8461 1612
8462 1604
8463 1597
8464 1592
8465 1591
8466 1595
8467 1603
8468 1611
8469 1620
8470 1631
8471 1639
8472 1646
8473 1651
8474 1654
8475 1652
8476 1647
8477 1645
8478 1640
8479 1633
8480 1626
8481 1617
8482 1607
8483 1598
8484 1588
8485 1584
8486 1580
8487 1579
8488 1583
8489 1595
8490 1606
8491 1615
8492 1625
8493 1632
8494 1638
8495 1642
8496 1641
8497 1636
8498 1628
8499 1617
8500 1609
8501 1601
8502 1590
8503 1583
8504 1581
8505 1580
8506 1584
8507 1588
8508 1594
8509 1604
8510 1616
8511 1626
8512 1636
8513 1644
8514 1650
8515 1650
8516 1643
8517 1636
8518 1628
8519 1618
8520 1605
8521 1594
8522 1583
8523 1577
8524 1570
8525 1570
8526 1573
8527 1579
8528 1585
8529 1594
8530 1607
8531 1620
8532 1630
8533 1636
8534 1640
8535 1641
8536 1641
8537 1637
8538 1628
8539 1616
8540 1606
8541 1595
8542 1589
8543 1583
8544 1576
8545 1574
8546 1576
8547 1579
8548 1584
8549 1590
8550 1600
8551 1607
8552 1617
8553 1628
8554 1632
8555 1633
8556 1628
8557 1615
8558 1608
8559 1601
8560 1594
8561 1588
8562 1581
8563 1576
8564 1572
8565 1572
8566 1572
8567 1573
8568 1578
8569 1588
8570 1600
8571 1611
8572 1618
8573 1620
8574 1618
8575 1618
8576 1618
8577 1616
8578 1610
8579 1600
8580 1589
8581 1581
8582 1573
8583 1566
8584 1561
8585 1561
8586 1565
8587 1568
8588 1572
8589 1579
8590 1588
8591 1600
8592 1613
8593 1620
8594 1627
8595 1629
8596 1628
8597 1625
8598 1619
8599 1608
8600 1596
8601 1589
8602 1581
8603 1575
8604 1572
8605 1570
8606 1571
8607 1573
8608 1580
8609 1587
8610 1597
8611 1605
8612 1614
8613 1624
8614 1629
8615 1629
8616 1632
8617 1627
8618 1620
8619 1609
8620 1598
8621 1589
8622 1582
8623 1579
8624 1577
8625 1575
8626 1575
8627 1579
8628 1587
8629 1597
8630 1605
8631 1616
8632 1626
8633 1631
8634 1638
8635 1638
8636 1633
8637 1626
8638 1620
8639 1609
8640 1593
8641 1579
8642 1569
8643 1563
8644 1559
8645 1556
8646 1555
8647 1560
8648 1564
8649 1573
8650 1582
8651 1593
8652 1603
8653 1610
8654 1616
8655 1615
8656 1612
8657 1604
8658 1597
8659 1587
8660 1578
8661 1569
8662 1559
8663 1554
8664 1555
8665 1556
8666 1557
8667 1560
8668 1564
8669 1569
8670 1576
8671 1586
8672 1596
8673 1602
8674 1605
8675 1605
8676 1604
8677 1599
8678 1594
8679 1586
8680 1580
8681 1575
8682 1569
8683 1566
8684 1559
8685 1555
8686 1554
8687 1554
8688 1554
8689 1559
8690 1567
8691 1576
8692 1585
8693 1592
8694 1597
8695 1596
8696 1591
8697 1582
8698 1575
8699 1567
8700 1561
8701 1553
8702 1543
8703 1534
8704 1525
8705 1525
8706 1526
8707 1531
8708 1538
8709 1552
8710 1568
8711 1576
8712 1582
8713 1588
8714 1592
8715 1592
8716 1591
8717 1584
8718 1576
8719 1567
8720 1554
8721 1545
8722 1537
8723 1530
8724 1523
8725 1521
8726 1522
8727 1525
8728 1529
8729 1538
8730 1549
8731 1559
8732 1569
8733 1575
8734 1579
8735 1577
8736 1572
8737 1567
8738 1562
8739 1556
8740 1547
8741 1540
8742 1536
8743 1537
8744 1539
8745 1543
8746 1552
8747 1569
8748 1588
8749 1611
8750 1633
8751 1651
8752 1672
8753 1690
8754 1706
8755 1719
8756 1728
8757 1734
8758 1744
8759 1755
8760 1764
8761 1776
8762 1790
8763 1804
8764 1821
8765 1839
8766 1852
8767 1860
8768 1865
8769 1872
8770 1878
8771 1875
8772 1865
8773 1845
8774 1820
8775 1786
8776 1753
8777 1721
8778 1691
8779 1659
8780 1623
8781 1584
8782 1545
8783 1508
8784 1485
8785 1476
8786 1475
8787 1484
8788 1494
8789 1509
8790 1522
8791 1531
8792 1541
8793 1548
8794 1555
8795 1559
8796 1561
8797 1561
8798 1562
8799 1558
8800 1548
8801 1539
8802 1531
8803 1528
8804 1527
8805 1527
8806 1528
8807 1534
8808 1537
8809 1543
8810 1551
8811 1559
8812 1568
8813 1575
8814 1580
8815 1582
8816 1581
8817 1575
8818 1571
8819 1561
8820 1548
8821 1538
8822 1529
8823 1524
8824 1523
8825 1523
8826 1523
8827 1524
8828 1526
8829 1534
8830 1544
8831 1554
8832 1565
8833 1571
8834 1572
8835 1572
8836 1571
8837 1566
8838 1562
8839 1556
8840 1545
8841 1533
8842 1523
8843 1518
8844 1517
8845 1519
8846 1522
8847 1527
8848 1536
8849 1547
8850 1557
8851 1563
8852 1566
8853 1568
8854 1571
8855 1572
8856 1568
8857 1562
8858 1555
8859 1547
8860 1540
8861 1531
8862 1521
8863 1518
8864 1516
8865 1516
8866 1520
8867 1527
8868 1530
8869 1540
8870 1549
8871 1559
8872 1567
8873 1572
8874 1577
8875 1578
8876 1573
8877 1567
8878 1561
8879 1554
8880 1543
8881 1534
8882 1528
8883 1521
8884 1517
8885 1513
8886 1513
8887 1521
8888 1527
8889 1536
8890 1549
8891 1559
8892 1569
8893 1576
8894 1581
8895 1582
8896 1582
8897 1579
8898 1573
8899 1563
8900 1553
8901 1545
8902 1537
8903 1530
8904 1525
8905 1524
8906 1527
8907 1534
8908 1542
8909 1551
8910 1560
8911 1567
8912 1570
8913 1572
8914 1576
8915 1574
8916 1569
8917 1564
8918 1558
8919 1548
8920 1539
8921 1532
8922 1525
8923 1523
8924 1526
8925 1529
8926 1531
8927 1537
8928 1541
8929 1548
8930 1556
8931 1566
8932 1576
8933 1580
8934 1581
8935 1579
8936 1578
8937 1575
8938 1572
8939 1562
8940 1553
8941 1544
8942 1536
8943 1533
8944 1530
8945 1531
8946 1535
8947 1544
8948 1551
8949 1563
8950 1575
8951 1585
8952 1594
8953 1599
8954 1603
8955 1604
8956 1602
8957 1596
8958 1590
8959 1577
8960 1567
8961 1556
8962 1547
8963 1542
8964 1543
8965 1544
8966 1546
8967 1556
8968 1565
8969 1574
8970 1582
8971 1593
8972 1601
8973 1604
8974 1605
8975 1604
8976 1600
8977 1590
8978 1580
8979 1565
8980 1549
8981 1538
8982 1531
8983 1529
8984 1531
8985 1533
8986 1537
8987 1546
8988 1560
8989 1574
8990 1586
8991 1595
8992 1602
8993 1608
8994 1607
8995 1605
8996 1599
8997 1591
8998 1583
8999 1570
9000 1564
9001 1556
9002 1547
9003 1544
9004 1541
9005 1541
9006 1544
9007 1550
9008 1554
9009 1563
9010 1576
9011 1587
9012 1598
9013 1603
9014 1606
9015 1603
9016 1599
9017 1592
9018 1588
9019 1578
9020 1572
9021 1564
9022 1553
9023 1547
9024 1546
9025 1545
9026 1546
9027 1548
9028 1553
9029 1563
9030 1575
9031 1584
9032 1592
9033 1596
9034 1597
9035 1596
9036 1595
9037 1592
9038 1585
9039 1574
9040 1564
9041 1552
9042 1539
9043 1534
9044 1534
9045 1536
9046 1540
9047 1545
9048 1550
9049 1561
9050 1572
9051 1582
9052 1591
9053 1595
9054 1597
9055 1595
9056 1591
9057 1586
9058 1581
9059 1566
9060 1551
9061 1543
9062 1535
9063 1532
9064 1530
9065 1530
9066 1534
9067 1542
9068 1546
9069 1557
9070 1568
9071 1578
9072 1589
9073 1597
9074 1596
9075 1590
9076 1586
9077 1582
9078 1575
9079 1562
9080 1551
9081 1542
9082 1535
9083 1531
9084 1526
9085 1529
9086 1533
9087 1539
9088 1547
9089 1560
9090 1571
9091 1580
9092 1590
9093 1596
9094 1599
9095 1599
9096 1596
9097 1589
9098 1581
9099 1571
9100 1560
9101 1552
9102 1543
9103 1540
9104 1541
9105 1543
9106 1547
9107 1552
9108 1560
9109 1572
9110 1582
9111 1593
9112 1604
9113 1609
9114 1608
9115 1603
9116 1602
9117 1598
9118 1594
9119 1585
9120 1576
9121 1565
9122 1555
9123 1549
9124 1547
9125 1550
9126 1557
9127 1564
9128 1572
9129 1584
9130 1591
9131 1600
9132 1609
9133 1617
9134 1620
9135 1621
9136 1620
9137 1616
9138 1610
9139 1600
9140 1589
9141 1580
9142 1574
9143 1568
9144 1563
9145 1563
9146 1567
9147 1572
9148 1578
9149 1587
9150 1596
9151 1607
9152 1618
9153 1624
9154 1626
9155 1624
9156 1620
9157 1614
9158 1607
9159 1595
9160 1585
9161 1577
9162 1567
9163 1559
9164 1556
9165 1555
9166 1556
9167 1562
9168 1572
9169 1585
9170 1594
9171 1604
9172 1614
9173 1623
9174 1627
9175 1628
9176 1626
9177 1620
9178 1611
9179 1598
9180 1588
9181 1580
9182 1572
9183 1567
9184 1568
9185 1568
9186 1570
9187 1577
9188 1582
9189 1594
9190 1607
9191 1616
9192 1620
9193 1623
9194 1623
9195 1621
9196 1619
9197 1614
9198 1605
9199 1594
9200 1584
9201 1572
9202 1565
9203 1561
9204 1561
9205 1560
9206 1562
9207 1568
9208 1576
9209 1585
9210 1594
9211 1607
9212 1619
9213 1622
9214 1623
9215 1623
9216 1621
9217 1617
9218 1611
9219 1603
9220 1596
9221 1587
9222 1578
9223 1571
9224 1567
9225 1570
9226 1575
9227 1580
9228 1586
9229 1599
9230 1608
9231 1617
9232 1624
9233 1630
9234 1631
9235 1629
9236 1625
9237 1618
9238 1612
9239 1599
9240 1586
9241 1576
9242 1569
9243 1563
9244 1561
9245 1563
9246 1569
9247 1578
9248 1587
9249 1598
9250 1609
9251 1618
9252 1627
9253 1636
9254 1642
9255 1643
9256 1641
9257 1634
9258 1627
9259 1616
9260 1609
9261 1599
9262 1589
9263 1578
9264 1575
9265 1577
9266 1584
9267 1590
9268 1598
9269 1610
9270 1619
9271 1627
9272 1632
9273 1631
9274 1631
9275 1630
9276 1631
9277 1629
9278 1622
9279 1609
9280 1600
9281 1591
9282 1583
9283 1580
9284 1581
9285 1581
9286 1582
9287 1588
9288 1597
9289 1611
9290 1624
9291 1635
9292 1646
9293 1652
9294 1652
9295 1653
9296 1650
9297 1649
9298 1645
9299 1635
9300 1623
9301 1612
9302 1600
9303 1594
9304 1594
9305 1596
9306 1599
9307 1606
9308 1612
9309 1622
9310 1632
9311 1636
9312 1645
9313 1652
9314 1653
9315 1650
9316 1647
9317 1645
9318 1638
9319 1627
9320 1619
9321 1609
9322 1601
9323 1597
9324 1596
9325 1601
9326 1607
9327 1613
9328 1621
9329 1632
9330 1642
9331 1652
9332 1661
9333 1666
9334 1668
9335 1666
9336 1661
9337 1656
9338 1652
9339 1643
9340 1637
9341 1632
9342 1625
9343 1618
9344 1615
9345 1617
9346 1620
9347 1628
9348 1634
9349 1642
9350 1649
9351 1660
9352 1670
9353 1674
9354 1674
9355 1668
9356 1663
9357 1656
9358 1648
9359 1639
9360 1631
9361 1624
9362 1618
9363 1613
9364 1614
9365 1619
9366 1628
9367 1635
9368 1644
9369 1656
9370 1667
9371 1676
9372 1685
9373 1691
9374 1691
9375 1689
9376 1683
9377 1673
9378 1666
9379 1656
9380 1647
9381 1639
9382 1630
9383 1624
9384 1625
9385 1626
9386 1627
9387 1632
9388 1636
9389 1646
9390 1656
9391 1664
9392 1673
9393 1680
9394 1684
9395 1683
9396 1679
9397 1675
9398 1669
9399 1659
9400 1651
9401 1640
9402 1631
9403 1626
9404 1622
9405 1630
9406 1638
9407 1648
9408 1658
9409 1669
9410 1683
9411 1696
9412 1703
9413 1707
9414 1708
9415 1705
9416 1698
9417 1690
9418 1686
9419 1680
9420 1673
9421 1665
9422 1659
9423 1657
9424 1656
9425 1657
9426 1663
9427 1669
9428 1677
9429 1689
9430 1698
9431 1705
9432 1715
9433 1722
9434 1725
9435 1724
9436 1720
9437 1713
9438 1704
9439 1693
9440 1687
9441 1681
9442 1674
9443 1670
9444 1668
9445 1669
9446 1676
9447 1682
9448 1685
9449 1692
9450 1704
9451 1714
9452 1725
9453 1728
9454 1730
9455 1727
9456 1724
9457 1723
9458 1719
9459 1709
9460 1701
9461 1694
9462 1686
9463 1674
9464 1671
9465 1672
9466 1672
9467 1675
9468 1682
9469 1696
9470 1707
9471 1716
9472 1723
9473 1728
9474 1730
9475 1728
9476 1727
9477 1722
9478 1714
9479 1704
9480 1695
9481 1687
9482 1680
9483 1673
9484 1669
9485 1670
9486 1671
9487 1676
9488 1684
9489 1694
9490 1702
9491 1708
9492 1712
9493 1718
9494 1722
9495 1719
9496 1714
9497 1709
9498 1701
9499 1690
9500 1680
9501 1672
9502 1663
9503 1659
9504 1661
9505 1667
9506 1673
9507 1681
9508 1687
9509 1699
9510 1711
9511 1721
9512 1731
9513 1734
9514 1736
9515 1736
9516 1732
9517 1726
9518 1716
9519 1707
9520 1697
9521 1689
9522 1677
9523 1672
9524 1671
9525 1675
9526 1677
9527 1679
9528 1683
9529 1694
9530 1705
9531 1716
9532 1722
9533 1725
9534 1724
9535 1723
9536 1718
9537 1709
9538 1702
9539 1695
9540 1693
9541 1693
9542 1690
9543 1690
9544 1694
9545 1704
9546 1717
9547 1732
9548 1751
9549 1771
9550 1790
9551 1810
9552 1833
9553 1853
9554 1869
9555 1882
9556 1894
9557 1907
9558 1920
9559 1932
9560 1948
9561 1962
9562 1978
9563 1995
9564 2005
9565 2009
9566 2013
9567 2024
9568 2030
9569 2036
9570 2042
9571 2037
9572 2026
9573 2003
9574 1971
9575 1935
9576 1902
9577 1872
9578 1844
9579 1809
9580 1769
9581 1728
9582 1693
9583 1668
9584 1654
9585 1649
9586 1654
9587 1662
9588 1674
9589 1690
9590 1702
9591 1716
9592 1730
9593 1738
9594 1740
9595 1740
9596 1741
9597 1737
9598 1734
9599 1729
9600 1721
9601 1715
9602 1709
9603 1703
9604 1702
9605 1707
9606 1712
9607 1720
9608 1729
9609 1742
9610 1753
9611 1761
9612 1769
9613 1774
9614 1776
9615 1775
9616 1773
9617 1767
9618 1759
9619 1748
9620 1738
9621 1729
9622 1723
9623 1719
9624 1717
9625 1717
9626 1721
9627 1729
9628 1736
9629 1743
9630 1752
9631 1760
9632 1762
9633 1764
9634 1768
9635 1769
9636 1766
9637 1761
9638 1756
9639 1750
9640 1743
9641 1732
9642 1726
9643 1723
9644 1721
9645 1720
9646 1725
9647 1733
9648 1741
9649 1753
9650 1766
9651 1777
9652 1783
9653 1788
9654 1791
9655 1792
9656 1788
9657 1777
9658 1768
9659 1758
9660 1749
9661 1739
9662 1730
9663 1724
9664 1723
9665 1728
9666 1732
9667 1737
9668 1748
9669 1760
9670 1771
9671 1785
9672 1798
9673 1806
9674 1806
9675 1801
9676 1795
9677 1789
9678 1780
9679 1771
9680 1760
9681 1745
9682 1733
9683 1730
9684 1727
9685 1729
9686 1734
9687 1743
9688 1754
9689 1767
9690 1775
9691 1784
9692 1795
9693 1799
9694 1802
9695 1801
9696 1800
9697 1798
9698 1791
9699 1782
9700 1773
9701 1768
9702 1761
9703 1753
9704 1748
9705 1750
9706 1759
9707 1768
9708 1775
9709 1786
9710 1798
9711 1804
9712 1815
9713 1824
9714 1827
9715 1825
9716 1820
9717 1818
9718 1812
9719 1800
9720 1788
9721 1775
9722 1767
9723 1763
9724 1760
9725 1761
9726 1767
9727 1774
9728 1784
9729 1797
9730 1809
9731 1820
9732 1828
9733 1831
9734 1832
9735 1832
9736 1829
9737 1826
9738 1820
9739 1808
9740 1800
9741 1794
9742 1789
9743 1787
9744 1788
9745 1791
9746 1798
9747 1806
9748 1813
9749 1823
9750 1833
9751 1844
9752 1852
9753 1856
9754 1857
9755 1854
9756 1851
9757 1845
9758 1837
9759 1822
9760 1811
9761 1803
9762 1797
9763 1794
9764 1794
9765 1796
9766 1801
9767 1809
9768 1820
9769 1833
9770 1842
9771 1854
9772 1865
9773 1869
9774 1869
9775 1865
9776 1858
9777 1854
9778 1849
9779 1838
9780 1830
9781 1824
9782 1816
9783 1808
9784 1801
9785 1801
9786 1803
9787 1808
9788 1815
9789 1826
9790 1836
9791 1846
9792 1854
9793 1858
9794 1859
9795 1860
9796 1854
9797 1849
9798 1848
9799 1839
9800 1829
9801 1820
9802 1810
9803 1802
9804 1802
9805 1802
9806 1808
9807 1814
9808 1822
9809 1830
9810 1839
9811 1848
9812 1856
9813 1862
9814 1866
9815 1867
9816 1866
9817 1859
9818 1850
9819 1841
9820 1831
9821 1822
9822 1818
9823 1814
9824 1812
9825 1809
9826 1808
9827 1814
9828 1822
9829 1832
9830 1844
9831 1854
9832 1862
9833 1861
9834 1857
9835 1852
9836 1847
9837 1840
9838 1834
9839 1824
9840 1816
9841 1807
9842 1800
9843 1797
9844 1794
9845 1792
9846 1794
9847 1799
9848 1808
9849 1819
9850 1827
9851 1838
9852 1845
9853 1849
9854 1851
9855 1851
9856 1846
9857 1836
9858 1830
9859 1822
9860 1811
9861 1803
9862 1790
9863 1787
9864 1788
9865 1791
9866 1797
9867 1808
9868 1816
9869 1827
9870 1837
9871 1845
9872 1852
9873 1855
9874 1856
9875 1855
9876 1850
9877 1846
9878 1839
9879 1828
9880 1817
9881 1808
9882 1801
9883 1796
9884 1795
9885 1798
9886 1801
9887 1807
9888 1816
9889 1828
9890 1837
9891 1845
9892 1851
9893 1856
9894 1858
9895 1858
9896 1856
9897 1856
9898 1854
9899 1847
9900 1841
9901 1831
9902 1821
9903 1813
9904 1808
9905 1806
9906 1807
9907 1812
9908 1821
9909 1832
9910 1844
9911 1854
9912 1861
9913 1866
9914 1867
9915 1866
9916 1862
9917 1855
9918 1846
9919 1837
9920 1830
9921 1823
9922 1816
9923 1813
9924 1813
9925 1816
9926 1820
9927 1825
9928 1833
9929 1846
9930 1858
9931 1864
9932 1872
9933 1878
9934 1880
9935 1878
9936 1876
9937 1870
9938 1862
9939 1851
9940 1841
9941 1831
9942 1824
9943 1817
9944 1815
9945 1818
9946 1822
9947 1827
9948 1833
9949 1845
9950 1857
9951 1865
9952 1871
9953 1875
9954 1874
9955 1874
9956 1873
9957 1868
9958 1863
9959 1855
9960 1848
9961 1841
9962 1831
9963 1823
9964 1823
9965 1823
9966 1826
9967 1832
9968 1841
9969 1850
9970 1860
9971 1869
9972 1872
9973 1875
9974 1875
9975 1871
9976 1868
9977 1863
9978 1857
9979 1849
9980 1843
9981 1836
9982 1826
9983 1819
9984 1821
9985 1825
9986 1828
9987 1829
9988 1833
9989 1845
9990 1856
9991 1868
9992 1877
9993 1882
9994 1879
9995 1876
9996 1873
9997 1865
9998 1855
9999 1845
10000 1835
10001 1825
10002 1820
10003 1816
10004 1818
10005 1820
10006 1825
10007 1833
10008 1842
10009 1852
10010 1861
10011 1868
10012 1874
10013 1877
10014 1877
10015 1879
10016 1873
10017 1867
10018 1856
10019 1844
10020 1834
10021 1828
10022 1822
10023 1816
10024 1818
10025 1820
10026 1821
10027 1824
10028 1832
10029 1842
10030 1849
10031 1857
10032 1865
10033 1866
10034 1864
10035 1864
10036 1862
10037 1857
10038 1847
10039 1836
10040 1828
10041 1820
10042 1816
10043 1816
10044 1820
10045 1824
10046 1829
10047 1837
10048 1846
10049 1853
10050 1859
10051 1866
10052 1871
10053 1872
10054 1876
10055 1873
10056 1868
10057 1860
10058 1851
10059 1839
10060 1828
10061 1817
10062 1809
10063 1803
10064 1805
10065 1811
10066 1818
10067 1828
10068 1837
10069 1848
10070 1858
10071 1866
10072 1878
10073 1887
10074 1889
10075 1886
10076 1878
10077 1870
10078 1856
10079 1843
10080 1835
10081 1824
10082 1814
10083 1807
10084 1808
10085 1811
10086 1814
10087 1818
10088 1829
10089 1842
10090 1856
10091 1866
10092 1872
10093 1876
10094 1877
10095 1874
10096 1871
10097 1866
10098 1859
10099 1845
10100 1831
10101 1820
10102 1815
10103 1812
10104 1813
10105 1816
10106 1818
10107 1823
10108 1831
10109 1843
10110 1851
10111 1862
10112 1867
10113 1869
10114 1872
10115 1870
10116 1865
10117 1859
10118 1850
10119 1842
10120 1836
10121 1829
10122 1824
10123 1821
10124 1819
10125 1823
10126 1826
10127 1833
10128 1841
10129 1851
10130 1855
10131 1862
10132 1869
10133 1874
10134 1875
10135 1875
10136 1870
10137 1861
10138 1852
10139 1840
10140 1832
10141 1824
10142 1820
10143 1818
10144 1816
10145 1816
10146 1822
10147 1832
10148 1843
10149 1852
10150 1859
10151 1865
10152 1870
10153 1871
10154 1870
10155 1870
10156 1868
10157 1861
10158 1850
10159 1839
10160 1829
10161 1819
10162 1813
10163 1811
10164 1812
10165 1813
10166 1819
10167 1828
10168 1839
10169 1852
10170 1864
10171 1876
10172 1884
10173 1888
10174 1889
10175 1886
10176 1884
10177 1879
10178 1871
10179 1859
10180 1847
10181 1835
10182 1824
10183 1821
10184 1823
10185 1824
10186 1827
10187 1833
10188 1843
10189 1854
10190 1864
10191 1875
10192 1880
10193 1885
10194 1886
10195 1885
10196 1878
10197 1871
10198 1863
10199 1852
10200 1842
10201 1833
10202 1828
10203 1829
10204 1831
10205 1833
10206 1839
10207 1848
10208 1858
10209 1867
10210 1875
10211 1882
10212 1885
10213 1889
10214 1888
10215 1883
10216 1878
10217 1872
10218 1864
10219 1854
10220 1846
10221 1835
10222 1827
10223 1819
10224 1818
10225 1819
10226 1822
10227 1829
10228 1837
10229 1845
10230 1851
10231 1857
10232 1861
10233 1866
10234 1866
10235 1860
10236 1856
10237 1850
10238 1835
10239 1821
10240 1811
10241 1802
10242 1797
10243 1796
10244 1798
10245 1801
10246 1807
10247 1814
10248 1822
10249 1830
10250 1834
10251 1840
10252 1847
10253 1849
10254 1848
10255 1847
10256 1846
10257 1842
10258 1832
10259 1819
10260 1811
10261 1802
10262 1798
10263 1793
10264 1792
10265 1792
10266 1795
10267 1797
10268 1803
10269 1814
10270 1824
10271 1835
10272 1842
10273 1845
10274 1846
10275 1847
10276 1845
10277 1843
10278 1832
10279 1820
10280 1808
10281 1798
10282 1792
10283 1788
10284 1783
10285 1780
10286 1784
10287 1791
10288 1795
10289 1797
10290 1805
10291 1814
10292 1821
10293 1830
10294 1835
10295 1836
10296 1834
10297 1832
10298 1830
10299 1833
10300 1835
10301 1835
10302 1838
10303 1843
10304 1856
10305 1876
10306 1894
10307 1912
10308 1931
10309 1952
10310 1980
10311 2009
10312 2031
10313 2055
10314 2079
10315 2100
10316 2115
10317 2127
10318 2125
10319 2121
10320 2117
10321 2105
10322 2093
10323 2084
10324 2069
10325 2051
10326 2032
10327 2011
10328 1987
10329 1963
10330 1943
10331 1927
10332 1904
10333 1869
10334 1835
10335 1812
10336 1796
10337 1782
10338 1766
10339 1754
10340 1747
10341 1742
10342 1739
10343 1738
10344 1741
10345 1750
10346 1760
10347 1771
10348 1786
10349 1798
10350 1806
10351 1813
10352 1820
10353 1826
10354 1831
10355 1832
10356 1827
10357 1817
10358 1806
10359 1796
10360 1788
10361 1778
10362 1771
10363 1766
10364 1767
10365 1769
10366 1777
10367 1784
10368 1793
10369 1803
10370 1816
10371 1826
10372 1828
10373 1829
10374 1828
10375 1828
10376 1824
10377 1815
10378 1805
10379 1791
10380 1781
10381 1772
10382 1766
10383 1763
10384 1762
10385 1762
10386 1765
10387 1769
10388 1777
10389 1787
10390 1798
10391 1811
10392 1819
10393 1822
10394 1827
10395 1827
10396 1822
10397 1812
10398 1803
10399 1795
10400 1789
10401 1779
10402 1774
10403 1770
10404 1770
10405 1773
10406 1772
10407 1777
10408 1781
10409 1785
10410 1793
10411 1802
10412 1810
10413 1814
10414 1813
10415 1814
10416 1809
10417 1802
10418 1795
10419 1787
10420 1780
10421 1772
10422 1765
10423 1763
10424 1769
10425 1773
10426 1777
10427 1780
10428 1787
10429 1795
10430 1805
10431 1812
10432 1815
10433 1816
10434 1818
10435 1812
10436 1808
10437 1803
10438 1795
10439 1787
10440 1783
10441 1777
10442 1770
10443 1766
10444 1764
10445 1763
10446 1767
10447 1774
10448 1782
10449 1792
10450 1800
10451 1809
10452 1814
10453 1817
10454 1816
10455 1813
10456 1807
10457 1802
10458 1792
10459 1781
10460 1775
10461 1767
10462 1761
10463 1761
10464 1763
10465 1764
10466 1772
10467 1778
10468 1786
10469 1794
10470 1801
10471 1810
10472 1817
10473 1822
10474 1823
10475 1822
10476 1814
10477 1807
10478 1800
10479 1792
10480 1784
10481 1773
10482 1766
10483 1761
10484 1757
10485 1760
10486 1765
10487 1769
10488 1779
10489 1788
10490 1796
10491 1812
10492 1822
10493 1825
10494 1826
10495 1825
10496 1820
10497 1815
10498 1804
10499 1794
10500 1784
10501 1777
10502 1772
10503 1770
10504 1772
10505 1776
10506 1782
10507 1791
10508 1800
10509 1808
10510 1815
10511 1826
10512 1832
10513 1834
10514 1833
10515 1828
10516 1817
10517 1812
10518 1805
10519 1801
10520 1797
10521 1785
10522 1774
10523 1769
10524 1770
10525 1771
10526 1775
10527 1783
10528 1796
10529 1806
10530 1816
10531 1825
10532 1826
10533 1829
10534 1832
10535 1826
10536 1815
10537 1807
10538 1795
10539 1783
10540 1775
10541 1767
10542 1764
10543 1764
10544 1766
10545 1769
10546 1776
10547 1784
10548 1791
10549 1796
10550 1804
10551 1812
10552 1820
10553 1824
10554 1826
10555 1825
10556 1820
10557 1813
10558 1800
10559 1785
10560 1773
10561 1765
10562 1762
10563 1760
10564 1760
10565 1763
10566 1768
10567 1772
10568 1782
10569 1794
10570 1804
10571 1810
10572 1813
10573 1814
10574 1811
10575 1808
10576 1800
10577 1791
10578 1777
10579 1766
10580 1759
10581 1750
10582 1741
10583 1737
10584 1736
10585 1740
10586 1747
10587 1751
10588 1757
10589 1766
10590 1777
10591 1785
10592 1790
10593 1793
10594 1793
10595 1789
10596 1781
10597 1773
10598 1764
10599 1758
10600 1748
10601 1737
10602 1731
10603 1724
10604 1723
10605 1723
10606 1729
10607 1735
10608 1744
10609 1751
10610 1758
10611 1767
10612 1771
10613 1775
10614 1769
10615 1767
10616 1765
10617 1760
10618 1752
10619 1744
10620 1736
10621 1728
10622 1721
10623 1714
10624 1713
10625 1717
10626 1723
10627 1727
10628 1737
10629 1749
10630 1760
10631 1771
10632 1776
10633 1779
10634 1780
10635 1772
10636 1762
10637 1756
10638 1747
10639 1739
10640 1732
10641 1721
10642 1714
10643 1715
10644 1718
10645 1719
10646 1725
10647 1731
10648 1739
10649 1750
10650 1762
10651 1773
10652 1777
10653 1779
10654 1779
10655 1777
10656 1772
10657 1768
10658 1757
10659 1743
10660 1730
10661 1721
10662 1717
10663 1714
10664 1718
10665 1722
10666 1730
10667 1737
10668 1747
10669 1758
10670 1768
10671 1775
10672 1780
10673 1776
10674 1774
10675 1773
10676 1766
10677 1758
10678 1749
10679 1738
10680 1727
10681 1720
10682 1716
10683 1711
10684 1708
10685 1709
10686 1711
10687 1718
10688 1727
10689 1739
10690 1747
10691 1757
10692 1763
10693 1766
10694 1768
10695 1769
10696 1762
10697 1753
10698 1743
10699 1734
10700 1723
10701 1714
10702 1711
10703 1712
10704 1713
10705 1713
10706 1717
10707 1722
10708 1730
10709 1737
10710 1745
10711 1753
10712 1760
10713 1766
10714 1770
10715 1766
10716 1758
10717 1749
10718 1735
10719 1725
10720 1720
10721 1711
10722 1705
10723 1701
10724 1699
10725 1701
10726 1708
10727 1714
10728 1721
10729 1727
10730 1738
10731 1747
10732 1755
10733 1757
10734 1755
10735 1752
10736 1748
10737 1742
10738 1731
10739 1721
10740 1710
10741 1699
10742 1694
10743 1690
10744 1696
10745 1707
10746 1713
10747 1715
10748 1722
10749 1729
10750 1736
10751 1742
10752 1746
10753 1751
10754 1751
10755 1747
10756 1739
10757 1732
10758 1721
10759 1708
10760 1698
10761 1691
10762 1687
10763 1688
10764 1689
10765 1691
10766 1699
10767 1711
10768 1719
10769 1725
10770 1732
10771 1741
10772 1743
10773 1743
10774 1743
10775 1740
10776 1732
10777 1724
10778 1714
10779 1705
10780 1695
10781 1684
10782 1679
10783 1678
10784 1680
10785 1683
10786 1687
10787 1695
10788 1707
10789 1719
10790 1729
10791 1740
10792 1746
10793 1751
10794 1747
10795 1743
10796 1740
10797 1730
10798 1716
10799 1703
10800 1692
10801 1685
10802 1681
10803 1679
10804 1676
10805 1679
10806 1686
10807 1694
10808 1704
10809 1714
10810 1721
10811 1729
10812 1737
10813 1740
10814 1741
10815 1737
10816 1729
10817 1722
10818 1709
10819 1699
10820 1690
10821 1681
10822 1676
10823 1676
10824 1681
10825 1684
10826 1690
10827 1698
10828 1706
10829 1717
10830 1727
10831 1736
10832 1739
10833 1744
10834 1743
10835 1740
10836 1735
10837 1727
10838 1711
10839 1698
10840 1687
10841 1678
10842 1672
10843 1664
10844 1663
10845 1667
10846 1677
10847 1685
10848 1698
10849 1709
10850 1721
10851 1732
10852 1739
10853 1743
10854 1744
10855 1737
10856 1728
10857 1722
10858 1710
10859 1698
10860 1690
10861 1683
10862 1678
10863 1679
10864 1677
10865 1681
10866 1688
10867 1694
10868 1700
10869 1711
10870 1720
10871 1731
10872 1738
10873 1741
10874 1739
10875 1736
10876 1729
10877 1722
10878 1711
10879 1705
10880 1696
10881 1687
10882 1683
10883 1683
10884 1688
10885 1698
10886 1705
10887 1710
10888 1720
10889 1728
10890 1737
10891 1745
10892 1745
10893 1745
10894 1745
10895 1740
10896 1733
10897 1724
10898 1716
10899 1705
10900 1692
10901 1684
10902 1681
10903 1681
10904 1683
10905 1690
10906 1699
10907 1708
10908 1720
10909 1732
10910 1745
10911 1758
10912 1765
10913 1764
10914 1761
10915 1757
10916 1751
10917 1745
10918 1738
10919 1730
10920 1723
10921 1713
10922 1708
10923 1706
10924 1703
10925 1700
10926 1704
10927 1709
10928 1718
10929 1729
10930 1738
10931 1748
10932 1757
10933 1760
10934 1758
10935 1754
10936 1748
10937 1745
10938 1737
10939 1728
10940 1717
10941 1706
10942 1701
10943 1701
10944 1703
10945 1709
10946 1716
10947 1723
10948 1734
10949 1745
10950 1756
10951 1766
10952 1772
10953 1778
10954 1778
10955 1772
10956 1765
10957 1758
10958 1749
10959 1737
10960 1725
10961 1715
10962 1704
10963 1695
10964 1689
10965 1687
10966 1693
10967 1703
10968 1717
10969 1728
10970 1735
10971 1742
10972 1751
10973 1754
10974 1752
10975 1749
10976 1744
10977 1737
10978 1727
10979 1717
10980 1712
10981 1705
10982 1695
10983 1687
10984 1683
10985 1684
10986 1692
10987 1701
10988 1713
10989 1725
10990 1733
10991 1742
10992 1745
10993 1744
10994 1743
10995 1742
10996 1738
10997 1731
10998 1720
10999 1710
11000 1697
11001 1692
11002 1688
11003 1686
11004 1688
11005 1687
11006 1690
11007 1698
11008 1708
11009 1720
11010 1732
11011 1743
11012 1750
11013 1754
11014 1753
11015 1750
11016 1743
11017 1733
11018 1720
11019 1706
11020 1695
11021 1687
11022 1679
11023 1678
11024 1685
11025 1695
11026 1706
11027 1718
11028 1733
11029 1748
11030 1766
11031 1784
11032 1801
11033 1813
11034 1823
11035 1831
11036 1836
11037 1839
11038 1840
11039 1843
11040 1846
11041 1848
11042 1857
11043 1873
11044 1890
11045 1915
11046 1945
11047 1974
11048 2009
11049 2043
11050 2060
11051 2071
11052 2076
11053 2075
11054 2070
11055 2059
11056 2039
11057 2010
11058 1977
11059 1940
11060 1903
11061 1867
11062 1832
11063 1803
11064 1772
11065 1743
11066 1719
11067 1710
11068 1711
11069 1711
11070 1716
11071 1726
11072 1736
11073 1742
11074 1744
11075 1742
11076 1739
11077 1741
11078 1733
11079 1731
11080 1725
11081 1716
11082 1710
11083 1707
11084 1710
11085 1716
11086 1723
11087 1736
11088 1754
11089 1767
11090 1779
11091 1786
11092 1788
11093 1784
11094 1781
11095 1774
11096 1765
11097 1759
11098 1752
11099 1746
11100 1740
11101 1733
11102 1726
11103 1719
11104 1715
11105 1720
11106 1731
11107 1740
11108 1752
11109 1763
11110 1772
11111 1782
11112 1789
11113 1792
11114 1790
11115 1783
11116 1779
11117 1774
11118 1765
11119 1757
11120 1749
11121 1740
11122 1736
11123 1734
11124 1733
11125 1738
11126 1745
11127 1753
11128 1765
11129 1774
11130 1784
11131 1794
11132 1800
11133 1799
11134 1798
11135 1795
11136 1792
11137 1787
11138 1778
11139 1769
11140 1762
11141 1752
11142 1745
11143 1743
11144 1745
11145 1750
11146 1759
11147 1765
11148 1774
11149 1783
11150 1793
11151 1802
11152 1807
11153 1809
11154 1808
11155 1807
11156 1806
11157 1800
11158 1790
11159 1781
11160 1774
11161 1768
11162 1764
11163 1765
11164 1770
11165 1771
11166 1775
11167 1783
11168 1792
11169 1802
11170 1813
11171 1823
11172 1827
11173 1828
11174 1828
11175 1822
11176 1817
11177 1810
11178 1793
11179 1785
11180 1779
11181 1773
11182 1770
11183 1770
11184 1771
11185 1778
11186 1787
11187 1796
11188 1805
11189 1819
11190 1832
11191 1840
11192 1844
11193 1844
11194 1844
11195 1839
11196 1831
11197 1822
11198 1809
11199 1802
11200 1795
11201 1788
11202 1787
11203 1790
11204 1794
11205 1799
11206 1805
11207 1812
11208 1822
11209 1833
11210 1846
11211 1857
11212 1864
11213 1871
11214 1874
11215 1869
11216 1861
11217 1852
11218 1839
11219 1829
11220 1825
11221 1820
11222 1818
11223 1815
11224 1818
11225 1821
11226 1827
11227 1834
11228 1845
11229 1858
11230 1869
11231 1878
11232 1882
11233 1888
11234 1892
11235 1885
11236 1877
11237 1870
11238 1863
11239 1855
11240 1846
11241 1841
11242 1839
11243 1836
11244 1834
11245 1838
11246 1848
11247 1859
11248 1869
11249 1877
11250 1884
11251 1893
11252 1900
11253 1905
11254 1903
11255 1899
11256 1894
11257 1888
11258 1875
11259 1866
11260 1862
11261 1852
11262 1848
11263 1850
11264 1853
11265 1856
11266 1863
11267 1872
11268 1884
11269 1893
11270 1903
11271 1908
11272 1915
11273 1918
11274 1919
11275 1917
11276 1911
11277 1906
11278 1897
11279 1887
11280 1877
11281 1871
11282 1868
11283 1868
11284 1869
11285 1876
11286 1886
11287 1894
11288 1901
11289 1909
11290 1916
11291 1922
11292 1928
11293 1929
11294 1929
11295 1926
11296 1922
11297 1914
11298 1900
11299 1891
11300 1884
11301 1879
11302 1878
11303 1877
11304 1881
11305 1887
11306 1895
11307 1901
11308 1906
11309 1914
11310 1924
11311 1931
11312 1935
11313 1936
11314 1937
11315 1936
11316 1929
11317 1921
11318 1910
11319 1897
11320 1887
11321 1883
11322 1878
11323 1876
11324 1874
11325 1874
11326 1879
11327 1886
11328 1899
11329 1911
11330 1920
11331 1926
11332 1930
11333 1934
11334 1936
11335 1934
11336 1930
11337 1923
11338 1914
11339 1904
11340 1893
11341 1887
11342 1886
11343 1889
11344 1891
11345 1895
11346 1902
11347 1910
11348 1919
11349 1926
11350 1932
11351 1940
11352 1945
11353 1949
11354 1950
11355 1948
11356 1946
11357 1938
11358 1930
11359 1919
11360 1910
11361 1906
11362 1903
11363 1904
11364 1907
11365 1909
11366 1916
11367 1926
11368 1936
11369 1948
11370 1957
11371 1965
11372 1971
11373 1971
11374 1969
11375 1967
11376 1965
11377 1960
11378 1952
11379 1944
11380 1937
11381 1932
11382 1928
11383 1926
11384 1928
11385 1933
11386 1941
11387 1948
11388 1956
11389 1963
11390 1972
11391 1980
11392 1981
11393 1981
11394 1978
11395 1973
11396 1965
11397 1959
11398 1950
11399 1944
11400 1938
11401 1931
11402 1928
11403 1927
11404 1927
11405 1931
11406 1942
11407 1951
11408 1964
11409 1975
11410 1985
11411 1994
11412 1998
11413 1998
11414 1996
11415 1992
11416 1986
11417 1978
11418 1968
11419 1958
11420 1946
11421 1941
11422 1938
11423 1942
11424 1944
11425 1948
11426 1954
11427 1963
11428 1975
11429 1989
11430 2003
11431 2009
11432 2011
11433 2012
11434 2010
11435 2007
11436 2002
11437 1992
11438 1981
11439 1974
11440 1967
11441 1960
11442 1957
11443 1956
11444 1958
11445 1964
11446 1971
11447 1980
11448 1991
11449 2000
11450 2009
11451 2020
11452 2024
11453 2024
11454 2018
11455 2012
11456 2009
11457 2002
11458 1995
11459 1987
11460 1978
11461 1970
11462 1966
11463 1966
11464 1969
11465 1972
11466 1975
11467 1982
11468 1990
11469 2000
11470 2010
11471 2017
11472 2021
11473 2025
11474 2026
11475 2025
11476 2019
11477 2012
11478 2004
11479 1997
11480 1987
11481 1978
11482 1975
11483 1975
11484 1978
11485 1981
11486 1988
11487 1996
11488 2006
11489 2015
11490 2025
11491 2031
11492 2037
11493 2041
11494 2040
11495 2035
11496 2029
11497 2025
11498 2020
11499 2009
11500 1997
11501 1987
11502 1983
11503 1983
11504 1987
11505 1991
11506 1996
11507 2004
11508 2016
11509 2026
11510 2034
11511 2039
11512 2042
11513 2043
11514 2041
11515 2038
11516 2034
11517 2026
11518 2016
11519 2007
11520 2001
11521 1997
11522 1994
11523 1995
11524 1998
11525 2003
11526 2010
11527 2020
11528 2031
11529 2042
11530 2052
11531 2059
11532 2062
11533 2062
11534 2060
11535 2059
11536 2057
11537 2050
11538 2039
11539 2031
11540 2024
11541 2018
11542 2013
11543 2009
11544 2013
11545 2021
11546 2028
11547 2032
11548 2035
11549 2041
11550 2048
11551 2054
11552 2058
11553 2058
11554 2056
11555 2054
11556 2051
11557 2046
11558 2040
11559 2033
11560 2028
11561 2025
11562 2024
11563 2026
11564 2030
11565 2034
11566 2041
11567 2049
11568 2060
11569 2071
11570 2080
11571 2088
11572 2092
11573 2094
11574 2093
11575 2091
11576 2086
11577 2076
11578 2068
11579 2057
11580 2045
11581 2039
11582 2035
11583 2035
11584 2038
11585 2045
11586 2054
11587 2067
11588 2082
11589 2094
11590 2102
11591 2108
11592 2112
11593 2114
11594 2113
11595 2110
11596 2110
11597 2107
11598 2101
11599 2096
11600 2087
11601 2081
11602 2076
11603 2072
11604 2067
11605 2069
11606 2074
11607 2085
11608 2098
11609 2106
11610 2112
11611 2117
11612 2120
11613 2121
11614 2122
11615 2122
11616 2121
11617 2116
11618 2107
11619 2097
11620 2087
11621 2079
11622 2076
11623 2075
11624 2077
11625 2084
11626 2091
11627 2098
11628 2107
11629 2116
11630 2121
11631 2123
11632 2125
11633 2126
11634 2124
11635 2118
11636 2113
11637 2104
11638 2091
11639 2079
11640 2071
11641 2065
11642 2062
11643 2058
11644 2055
11645 2057
11646 2062
11647 2071
11648 2080
11649 2087
11650 2091
11651 2098
11652 2103
11653 2104
11654 2104
11655 2100
11656 2090
11657 2078
11658 2066
11659 2056
11660 2047
11661 2042
11662 2039
11663 2041
11664 2045
11665 2051
11666 2060
11667 2074
11668 2086
11669 2095
11670 2103
11671 2106
11672 2109
11673 2111
11674 2110
11675 2108
11676 2105
11677 2097
11678 2086
11679 2077
11680 2070
11681 2065
11682 2058
11683 2055
11684 2060
11685 2067
11686 2071
11687 2074
11688 2079
11689 2085
11690 2092
11691 2098
11692 2102
11693 2103
11694 2100
11695 2088
11696 2080
11697 2070
11698 2058
11699 2048
11700 2038
11701 2031
11702 2029
11703 2036
11704 2046
11705 2058
11706 2073
11707 2091
11708 2108
11709 2124
11710 2141
11711 2156
11712 2170
11713 2181
11714 2186
11715 2189
11716 2195
11717 2201
11718 2204
11719 2208
11720 2217
11721 2230
11722 2246
11723 2266
11724 2290
11725 2319
11726 2348
11727 2383
11728 2411
11729 2426
11730 2441
11731 2449
11732 2448
11733 2440
11734 2424
11735 2406
11736 2382
11737 2347
11738 2303
11739 2264
11740 2228
11741 2193
11742 2158
11743 2126
11744 2098
11745 2079
11746 2071
11747 2073
11748 2078
11749 2083
11750 2090
11751 2093
11752 2096
11753 2098
11754 2100
11755 2096
11756 2089
11757 2080
11758 2076
11759 2074
11760 2071
11761 2073
11762 2073
11763 2078
11764 2088
11765 2097
11766 2104
11767 2113
11768 2123
11769 2130
11770 2139
11771 2145
11772 2148
11773 2147
11774 2146
11775 2141
11776 2137
11777 2126
11778 2113
11779 2101
11780 2091
11781 2086
11782 2083
11783 2086
11784 2093
11785 2099
11786 2107
11787 2117
11788 2124
11789 2131
11790 2142
11791 2151
11792 2160
11793 2162
11794 2162
11795 2157
11796 2148
11797 2138
11798 2127
11799 2116
11800 2103
11801 2092
11802 2086
11803 2085
11804 2084
11805 2086
11806 2094
11807 2110
11808 2126
11809 2137
11810 2148
11811 2159
11812 2162
11813 2163
11814 2157
11815 2152
11816 2147
11817 2139
11818 2128
11819 2116
11820 2103
11821 2093
11822 2091
11823 2095
11824 2098
11825 2105
11826 2115
11827 2125
11828 2134
11829 2143
11830 2153
11831 2159
11832 2162
11833 2163
11834 2162
11835 2156
11836 2149
11837 2139
11838 2131
11839 2124
11840 2117
11841 2115
11842 2113
11843 2111
11844 2110
11845 2116
11846 2123
11847 2131
11848 2139
11849 2148
11850 2158
11851 2166
11852 2170
11853 2172
11854 2171
11855 2166
11856 2164
11857 2157
11858 2150
11859 2141
11860 2129
11861 2123
11862 2119
11863 2119
11864 2125
11865 2133
11866 2139
11867 2148
11868 2159
11869 2168
11870 2173
11871 2174
11872 2178
11873 2177
11874 2175
11875 2172
11876 2168
11877 2159
11878 2145
11879 2132
11880 2124
11881 2120
11882 2117
11883 2120
11884 2124
11885 2128
11886 2133
11887 2144
11888 2155
11889 2163
11890 2171
11891 2177
11892 2182
11893 2185
11894 2186
11895 2181
11896 2171
11897 2162
11898 2151
11899 2143
11900 2137
11901 2132
11902 2133
11903 2138
11904 2144
11905 2150
11906 2157
11907 2166
11908 2174
11909 2180
11910 2184
11911 2187
11912 2185
11913 2185
11914 2184
11915 2182
11916 2178
11917 2170
11918 2164
