-9.452585500029000304e-05
-2.811843611157296280e-04
-5.453565088766655113e-04
-8.643506804279364915e-04
-1.208846842680412611e-03
-1.545433848281427443e-03
-1.840220171744964437e-03
-2.062252212166217850e-03
-2.187890596842449221e-03
-2.202724077401531453e-03
-2.104476628935226471e-03
-1.903673370718856478e-03
-1.621688058487634043e-03
-1.287759994780565947e-03
-9.390736779080770171e-04
-6.152106107690808595e-04
-3.530657224543499876e-04
-1.835646177400114261e-04
-1.295054627503454490e-04
-2.028986705546259530e-04
-4.044755273232882855e-04
-7.211407749330473078e-04
-1.125985022777293426e-03
-1.582121351267033391e-03
-2.046735914933185685e-03
-2.475089076623222719e-03
-2.825348309499603559e-03
-3.061140774106182755e-03
-3.157696019015424418e-03
-3.105724827249875617e-03
-2.910817571667351916e-03
-2.591980220482203480e-03
-2.182154114006797443e-03
-1.723847985258165558e-03
-1.266522764645748155e-03
-8.604726628909133146e-04
-5.516066804570770275e-04
-3.758327414404889094e-04
-3.558510104577682965e-04
-5.004222714942034621e-04
-8.007624166275936458e-04
-1.230980302925508904e-03
-1.751375160175523563e-03
-2.312837691998998781e-03
-2.860752196789997752e-03
-3.342094296207487672e-03
-3.710247966431724428e-03
-3.929172234825953694e-03
-3.978012816527776337e-03
-3.852745094141287081e-03
1.426960711191490455e-02
3.177831475742307066e-02
4.558875661233036114e-02
5.347308851014435926e-02
5.363622602193577477e-02
4.498154205162986641e-02
2.735820971585274652e-02
1.542007944923127344e-03
-3.059595882190720498e-02
-6.659999993896016657e-02
-1.033160459131953202e-01
-1.374061648460988272e-01
-1.659444156237977475e-01
-1.867121411163200073e-01
-1.976989270255163356e-01
-1.982230654026119199e-01
-1.888832590175616721e-01
-1.712119505559419053e-01
-1.474222782503732676e-01
-1.204357143400067859e-01
-9.339014521703893623e-02
-6.992963459964252060e-02
-5.362187704299765240e-02
-4.712563884918834906e-02
-5.205535760134165357e-02
-6.893033552806582254e-02
-9.699532444953280763e-02
-1.346647957092826919e-01
-1.788916820607606428e-01
-2.256739406337179565e-01
-2.710147715519803380e-01
-3.112127829060544193e-01
-3.426075063357191253e-01
-3.626100749950899593e-01
-3.694597852678236927e-01
-3.629378945574989190e-01
-3.442172525656335136e-01
-3.159095905373991431e-01
-2.815393705273042668e-01
-2.449693324562856878e-01
-2.108231137809511990e-01
-1.835921982389896734e-01
-1.669569168224388778e-01
-1.634570117888360097e-01
-1.745021666887454082e-01
-1.997281996999050180e-01
-2.374276588876779726e-01
-2.847241255395264181e-01
-3.375739473445121264e-01
-3.914426425855804248e-01
1.542669581824033243e+00
1.505362494265531925e+00
1.420258009600259497e+00
1.357509550791273334e+00
1.305988111424506881e+00
1.261240390761318553e+00
1.229003188741966790e+00
1.205682520507457944e+00
1.210465515174462325e+00
1.222256643619747729e+00
1.260150554796380273e+00
1.320016033630231567e+00
1.370206722906504915e+00
1.384722994671018004e+00
1.423524677970085195e+00
1.444020006140888768e+00
1.425078111999042552e+00
1.382662060854157549e+00
1.345814174426678944e+00
1.315548649406452109e+00
1.316745197090839481e+00
1.305009090993122012e+00
1.263418889132101874e+00
1.225589070255472590e+00
1.203464720714399583e+00
1.191033913264833322e+00
1.193018011918546062e+00
1.169047773357010600e+00
1.166047589489268343e+00
1.203331229544091219e+00
1.236142824343478441e+00
1.236277927361436824e+00
1.249325834976898530e+00
1.246919811262545918e+00
1.261969534232932677e+00
1.268513672119714553e+00
1.265938972035880905e+00
1.238813055713964051e+00
1.204146769038596076e+00
1.202838030316012219e+00
1.183336447598278163e+00
1.144983328490220664e+00
1.109706061630096219e+00
1.089573460574122743e+00
1.062999899127526238e+00
1.063507372463254441e+00
1.075427448163520427e+00
1.082383423702645064e+00
1.099533084068418320e+00
1.110088836081295716e+00
1.108250141017907087e+00
1.126939356052399699e+00
1.151556436960181617e+00
1.155911489620621957e+00
1.162813926062392422e+00
1.199341936345210247e+00
1.232620710032187983e+00
1.262125271742405186e+00
1.258656274823993337e+00
1.244488976616528575e+00
1.232618861690735645e+00
1.243050321411892201e+00
1.215165432687930203e+00
1.179266250389473303e+00
1.172544521637623349e+00
1.171797198843026688e+00
1.174099904636035863e+00
1.168506702284259458e+00
1.188295364340816729e+00
1.199481226881326856e+00
1.216586019866709778e+00
1.183517896598119012e+00
1.173269077697234763e+00
1.183840556518964249e+00
1.209803608440625178e+00
1.214062657770150544e+00
1.215557461904750003e+00
1.213219258317081106e+00
1.197209746345482717e+00
1.221190723175290316e+00
1.230371877576537987e+00
1.189111238226256972e+00
1.152655039679167714e+00
1.171405072056534991e+00
1.202844048783185071e+00
1.203964439514424001e+00
1.183735660642676102e+00
1.171706276404371749e+00
1.165287897561587460e+00
1.158329712175119042e+00
1.166347190385417454e+00
1.181450868200081494e+00
1.200288909982499597e+00
1.192431336800731767e+00
1.152163235743675518e+00
1.137936603233765442e+00
1.140492976152240212e+00
1.162999672818786134e+00
1.184048566322160490e+00
1.185271856055132300e+00
1.179562334608428298e+00
1.194735171317115707e+00
1.209699195121788806e+00
1.227030110805865437e+00
1.256954082915233473e+00
1.264496675190261321e+00
1.238657978595458342e+00
1.228967617716919314e+00
1.229429501562728788e+00
1.242667073214582363e+00
1.251805484495026155e+00
1.260684790596180882e+00
1.286313812697169823e+00
1.290259198493002746e+00
1.297727510638813975e+00
1.278883354763993285e+00
1.264333373366191893e+00
1.252709978739321439e+00
1.250229868087100460e+00
1.262842115251622932e+00
1.271561747555732147e+00
1.273039514827618124e+00
1.254489218986600374e+00
1.258148506894498420e+00
1.278098235014676565e+00
1.296270144973212801e+00
1.305885296302463638e+00
1.284627043495776721e+00
1.246142399401738654e+00
1.228423741474252484e+00
1.226388467282419459e+00
1.220086976018104341e+00
1.237801555400122711e+00
1.252578491978580288e+00
1.274377781108299690e+00
1.273920581688224640e+00
1.266056622346167337e+00
1.281478510987097197e+00
1.274815178855993825e+00
1.263772857889037926e+00
1.285479103671043788e+00
1.299991562950545632e+00
1.290553988979592059e+00
1.283963542983979522e+00
1.266190742674095926e+00
1.242303092981375201e+00
1.208968741882287645e+00
1.207150906834222326e+00
1.230293091880177325e+00
1.229218642403203443e+00
1.239572372353021201e+00
1.245411463149285636e+00
1.227384674548203103e+00
1.207187015137412445e+00
1.235135525985057381e+00
1.249938081913509969e+00
1.234658120790625313e+00
1.231847397302744174e+00
1.219796122142541073e+00
1.223706477819007654e+00
1.232298294436635189e+00
1.257618905834529510e+00
1.278618835544568455e+00
1.309457833304274121e+00
1.287874670020623835e+00
1.255480536605229958e+00
1.233632333074117460e+00
1.215837096381037208e+00
1.219521474951825279e+00
1.234759258480856214e+00
1.248838117195143038e+00
1.253780761666529964e+00
1.258788376145630217e+00
1.241631389923006479e+00
1.248369598166194638e+00
1.269808442206531884e+00
1.268955025199550279e+00
1.292869265526498612e+00
1.296032147708082949e+00
1.315658863098112974e+00
1.320244087454575110e+00
1.309536467249623026e+00
1.274244311129228979e+00
1.264497010447758862e+00
1.262253109064292333e+00
1.253096382727362457e+00
1.234225519384057890e+00
1.222924593032450824e+00
1.245314653529236759e+00
1.256033580167290165e+00
1.290001414381838796e+00
1.315117980815603493e+00
1.336235492554907811e+00
1.363190074492310666e+00
1.374146407018170812e+00
1.383966141045658294e+00
1.363920788915337967e+00
1.336267844824347684e+00
1.282921780371952369e+00
1.261686577450067404e+00
1.281337939810179627e+00
1.317716064421992517e+00
1.322010571783173383e+00
1.328524291598324414e+00
1.346553876019689122e+00
1.341479163200494318e+00
1.330814111205569361e+00
1.328016232258380613e+00
1.346807086325185976e+00
1.341403632057047268e+00
1.330884432061802070e+00
1.339108805114221923e+00
1.354913327429378533e+00
1.335993806319065502e+00
1.329405136553052591e+00
1.330196908797929733e+00
1.353270190424701980e+00
1.397053018127668134e+00
1.415747473733018680e+00
1.419112744576602303e+00
1.431945792257420802e+00
1.429907068476485632e+00
1.432001755736016513e+00
1.456270232992721070e+00
1.460022191369688027e+00
1.464735384138404317e+00
1.471725820844014709e+00
1.481976827074912295e+00
1.497354528763124026e+00
1.496071047076277249e+00
1.489649724358108607e+00
1.474560877797489677e+00
1.460239209528061632e+00
1.436143291142794709e+00
1.452164288104952128e+00
1.470906609769253803e+00
1.475314187008827327e+00
1.488181002610779569e+00
1.507274445785708572e+00
1.538136845689185517e+00
1.565373479935054712e+00
1.565322797781313557e+00
1.533287409158969439e+00
1.519508047722777810e+00
1.477852970873646088e+00
1.449826026120576650e+00
1.464996916629155876e+00
1.472830873846300737e+00
1.479141100221323502e+00
1.489755950106970150e+00
1.511052054181569959e+00
1.518518723308587948e+00
1.517261572526088509e+00
1.517161654699148432e+00
1.524144834053346553e+00
1.525142169459690500e+00
1.527365607187642693e+00
1.549709699215090275e+00
1.554412827214120441e+00
1.555692686149030557e+00
1.550689544527607655e+00
1.539295296110726463e+00
1.508406628778961256e+00
1.476465464632126023e+00
1.456834719297248171e+00
1.446731792421348750e+00
1.443096449036370243e+00
1.410814155279765725e+00
1.395591620989251824e+00
1.412118982608699058e+00
1.431566088891027544e+00
1.421891260618866948e+00
1.419935431849862262e+00
1.383135431103078794e+00
1.346212358334720527e+00
1.356073805840279034e+00
1.363649943789759789e+00
1.359667812702238798e+00
1.346819849302812511e+00
1.327239094207255166e+00
1.321700084621372229e+00
1.334186419502850995e+00
1.367547215051057918e+00
1.395991924336332346e+00
1.388373353665436349e+00
1.369198295541234067e+00
1.359477991451151446e+00
1.376557810877838017e+00
1.377768065091458771e+00
1.361578082049626603e+00
1.343272423621431289e+00
1.351040778758332728e+00
1.366081176945561415e+00
1.366370623048060562e+00
1.358712430747712308e+00
1.361584534101603516e+00
1.369631642594173915e+00
1.385950096801399578e+00
1.397377582280549202e+00
1.406250249962841758e+00
1.401306065370604870e+00
1.382382235215683153e+00
1.372293572796774441e+00
1.393163218477079024e+00
1.382438423777835768e+00
1.364530922128732726e+00
1.363442444390388086e+00
1.367698547075007598e+00
1.363137098913384193e+00
1.372050845322692059e+00
1.385436110711731228e+00
1.395684049079500166e+00
1.388256066070340022e+00
1.365582396764660311e+00
1.330695937822933050e+00
1.311559008354358458e+00
1.307919430072843392e+00
1.295522331163125429e+00
1.268916406135125019e+00
1.270013835482993958e+00
1.283824822024440371e+00
1.274563622422836051e+00
1.260940505262762024e+00
1.236908460746647620e+00
1.227026103134762902e+00
1.222649372700488790e+00
1.211810741359053978e+00
1.191079524792191258e+00
1.205106996729193192e+00
1.243011797235953342e+00
1.262958299686920194e+00
1.284509793431701130e+00
1.300587594073013387e+00
1.329761625712653661e+00
1.352018911725561878e+00
1.339951006588886884e+00
1.342304583039749755e+00
1.391300242737073312e+00
1.426664481286392672e+00
1.499295450808962205e+00
1.582981361338223092e+00
1.645367546987883456e+00
1.688487010944546007e+00
1.757845970297153393e+00
1.825816116071780293e+00
1.855964399392497910e+00
1.883630385485300263e+00
1.919989407899589606e+00
1.985227084242371820e+00
2.104839303787417126e+00
2.210106152228341170e+00
2.293460962008315285e+00
2.360160256661355316e+00
2.444601391654473321e+00
2.558829176436816066e+00
2.627002155097758251e+00
2.629493160753837877e+00
2.619063668620841945e+00
2.635938776855953236e+00
2.646073182703704951e+00
2.610281295258478185e+00
2.560588210737647863e+00
2.479663695581526106e+00
2.384867691398583123e+00
2.272645147424464884e+00
2.190344787651865577e+00
2.097445402440083484e+00
1.989673659214822088e+00
1.851617288261813155e+00
1.728746918853046655e+00
1.611846383851866626e+00
1.513228699929546339e+00
1.438252038847852576e+00
1.385487700393957411e+00
1.338389519690008633e+00
1.281104180095667733e+00
1.261928661330873336e+00
1.304813766650589901e+00
1.356859143006241109e+00
1.376420029933258959e+00
1.377082570107342363e+00
1.370550890838125202e+00
1.355835571865305234e+00
1.342615623569047623e+00
1.335895141889286375e+00
1.348088905609393651e+00
1.386993802224944838e+00
1.432303235261234153e+00
1.456789348510007853e+00
1.477697893216782798e+00
1.529906895545981804e+00
1.565833521744122603e+00
1.550835606835656133e+00
1.547008369075625112e+00
1.545438799336656732e+00
1.550622930377810516e+00
1.558439663369749706e+00
1.528326162173872182e+00
1.482874182930377982e+00
1.447588353266682004e+00
1.459667776729195898e+00
1.487308065648643707e+00
1.493575216411420881e+00
1.492175418926615205e+00
1.491898153700911056e+00
1.461514777721311109e+00
1.430494626111807221e+00
1.455929487923104615e+00
1.534848411224105202e+00
1.557123189841461253e+00
1.537666120077572751e+00
1.536093532305602860e+00
1.537248804192219653e+00
1.535046102705589721e+00
1.539891356668961819e+00
1.526158296649096080e+00
1.528659574620456540e+00
1.518121725278141820e+00
1.509311433574104022e+00
1.527775495910799641e+00
1.562166625691791211e+00
1.592397912971472262e+00
1.605606467654015823e+00
1.600149281115505584e+00
1.598092858533185501e+00
1.605204089122047595e+00
1.607127367491172354e+00
1.588915174374042394e+00
1.572578368801636817e+00
1.569203068686221503e+00
1.578359735397921737e+00
1.552226721516265506e+00
1.547821492736829008e+00
1.558515341191751169e+00
1.586137147353797072e+00
1.600768695757170956e+00
1.608443135413837100e+00
1.611273367109586019e+00
1.603406393785895556e+00
1.586097643875472585e+00
1.584037321532960618e+00
1.593527388318385141e+00
1.586154567908582447e+00
1.572367335235625330e+00
1.542486672773889289e+00
1.558076943557828997e+00
1.572649028811668126e+00
1.584201540375612893e+00
1.590699497799546114e+00
1.594683277981339575e+00
1.602898861283769794e+00
1.615100042093392751e+00
1.632225703810179951e+00
1.647737410688125959e+00
1.655491859436828417e+00
1.625804005758491044e+00
1.628964651712251133e+00
1.654658283938912344e+00
1.688303626483956155e+00
1.715832727170361283e+00
1.718656632780575011e+00
1.700870342216448172e+00
1.673981870942113481e+00
1.677083032798234008e+00
1.684624635474212706e+00
1.694489132219699545e+00
1.696425479426820093e+00
1.688399893363542237e+00
1.700218288657238563e+00
1.709851300972235144e+00
1.695849445158069013e+00
1.681780072838781948e+00
1.676358193531704677e+00
1.668561851028218967e+00
1.668069396842360330e+00
1.661084262336026907e+00
1.694059701819669250e+00
1.709515776366845152e+00
1.717358833116043204e+00
1.727046503563870239e+00
1.727746163913576272e+00
1.720318599302835150e+00
1.720295968320688651e+00
1.710404470143175759e+00
1.696761132251310089e+00
1.689353133392594408e+00
1.682024398523456199e+00
1.676473984835250342e+00
1.682468908810859087e+00
1.674800475434930158e+00
1.696295791005295595e+00
1.730256902033022737e+00
1.740948261072223335e+00
1.741182902195255178e+00
1.768714440962177115e+00
1.781148904512762865e+00
1.784965655415139629e+00
1.782478356696855393e+00
1.760124635321838937e+00
1.756070315783037072e+00
1.759813131998008373e+00
1.767412328149208456e+00
1.786440783383388631e+00
1.811774832892278475e+00
1.838066422017840873e+00
1.847576428386434877e+00
1.853818823793667026e+00
1.858087472320846034e+00
1.857817958585124440e+00
1.843023634002826983e+00
1.832393078898189032e+00
1.817847841603703607e+00
1.799863202713900545e+00
1.799079735077087294e+00
1.817516185970269316e+00
1.813338274329028277e+00
1.832936485705647378e+00
1.870973744590660237e+00
1.901490066305445703e+00
1.926477332795654362e+00
1.935558768110382299e+00
1.941108713593051149e+00
1.970510306405454770e+00
1.970606085359639437e+00
1.975757665852129197e+00
1.999771349317667646e+00
2.027374601660348219e+00
2.051947908701932111e+00
2.055202641994589463e+00
2.047308672114616535e+00
2.059327326809387237e+00
2.083065518394245696e+00
2.111044688564544192e+00
2.128847905279526387e+00
2.138214406512358057e+00
2.141415096265704587e+00
2.153119800047980092e+00
2.159715317376949439e+00
2.139373999892852041e+00
2.162401101999494202e+00
2.193697915583688207e+00
2.209346849135151114e+00
2.209068927398114557e+00
2.187725237570050218e+00
2.171063147052709752e+00
2.152460224089991492e+00
2.149396774686043177e+00
2.131263903350952393e+00
2.128006369516636909e+00
2.153508510533681974e+00
2.206537407458369238e+00
2.210732514071828358e+00
2.202615960045608112e+00
2.179654781939726949e+00
2.179911223115407193e+00
2.182152242004456344e+00
2.209218856883674142e+00
2.235985721200579590e+00
2.245049583568930807e+00
2.238430231248548008e+00
2.201111664869766837e+00
2.189042159438495894e+00
2.185272219000157445e+00
2.164050867801853961e+00
2.178805425134226592e+00
2.186958845603540702e+00
2.173367813761255096e+00
2.163167684370172150e+00
2.142280764018510197e+00
2.132987464890414131e+00
2.142753025970441261e+00
2.143867805901709112e+00
2.128979461215663171e+00
2.116122208095554846e+00
2.135788039016690121e+00
2.166497697464237149e+00
2.167107028949291081e+00
2.152111348497570020e+00
2.136037111093965990e+00
2.120351850517860459e+00
2.113688117389637355e+00
2.107766061753425735e+00
2.105527729811502269e+00
2.121139832092998390e+00
2.108560500031719798e+00
2.089224370941892062e+00
2.076311447785665898e+00
2.043159829938295147e+00
2.007593282008823365e+00
2.011737755112778636e+00
2.018679896600287904e+00
2.012809105477527005e+00
2.011327702496701342e+00
2.020368737228339207e+00
2.030060035049191747e+00
2.010896208354600034e+00
2.005541090073441612e+00
2.000441331644362997e+00
2.009575143713538292e+00
2.006305416663693553e+00
1.999084786448127371e+00
1.987975544698632246e+00
1.980244752937794006e+00
1.982736284703243701e+00
1.977099096822518165e+00
1.968561378890846258e+00
1.954339596077211638e+00
1.947935163570769790e+00
1.955267609905378290e+00
1.970974864051705300e+00
1.990656226295092868e+00
1.994121415302038569e+00
1.986074604985969438e+00
1.992306216710082456e+00
1.994666849404912679e+00
1.995989531711020781e+00
1.995262548831877369e+00
1.998632498248433365e+00
2.016310367846363860e+00
2.013626051229824743e+00
2.019142880158509623e+00
2.036571439548547247e+00
2.036743230956995276e+00
2.033834447698444237e+00
2.045420585288986182e+00
2.048728083527612487e+00
2.057729204277576329e+00
2.046439401528887814e+00
2.048913048388122604e+00
2.031986344897174668e+00
2.027232582567469077e+00
2.023009420706300521e+00
2.020386330321494839e+00
2.001144590216938468e+00
2.007472784095034157e+00
2.022119170808636568e+00
2.043716033165743351e+00
2.058653118295898476e+00
2.052571108811824363e+00
2.058154544931878327e+00
2.055717884462497924e+00
2.064724900994123313e+00
2.075680800687689675e+00
2.102562648879311880e+00
2.111139431675576716e+00
2.102986656713488056e+00
2.107636395264918860e+00
2.091088603546296998e+00
2.079728256322612712e+00
2.088770379062567795e+00
2.097830949808556777e+00
2.075559417137560203e+00
2.059779466793062674e+00
2.080516846208375181e+00
2.108117747998211833e+00
2.116967124681826018e+00
2.141362320274315056e+00
2.167506310184131646e+00
2.176806663791928553e+00
2.182080949878486553e+00
2.191442118594649990e+00
2.196068988292281698e+00
2.190405611572294298e+00
2.187961659426129746e+00
2.186415641414578115e+00
2.211560192055372465e+00
2.252953868962020323e+00
2.264485634166547356e+00
2.288487733954896797e+00
2.320656840436588375e+00
2.369253104554715605e+00
2.403240427462402184e+00
2.408540929745489834e+00
2.407417213551052981e+00
2.417944941340943288e+00
2.406499799833071052e+00
2.411078596643342120e+00
2.421560156219972448e+00
2.407098109053323665e+00
2.388552525865420328e+00
2.373698392137395086e+00
2.353734279791490636e+00
2.326863445430094046e+00
2.315018454899556488e+00
2.263496518263635515e+00
2.229371060540119132e+00
2.214163617818264207e+00
2.196113515101931313e+00
2.170324545690241358e+00
2.152202678919486800e+00
2.150433508285876094e+00
2.142184516974902309e+00
2.121256714131429355e+00
2.101906356074893178e+00
2.094629869937852717e+00
2.066007239927314387e+00
2.046243328505295445e+00
2.037354489783660405e+00
2.036253293103588824e+00
2.031071240533488975e+00
1.989266954090288309e+00
1.937797662004042909e+00
1.931010867042802337e+00
1.930676111739644485e+00
1.914308823404830440e+00
1.879717293183944316e+00
1.828356726291539003e+00
1.802341816214267922e+00
1.780677430125962468e+00
1.771040003421208153e+00
1.777730794914023082e+00
1.765888239154403294e+00
1.741311186869372252e+00
1.690028091666052612e+00
1.650207309656329890e+00
1.644237541426229576e+00
1.626526341537713805e+00
1.599277063310233116e+00
1.555502661525029584e+00
1.527771528874536600e+00
1.515530033923223607e+00
1.513929389757187938e+00
1.525896494366226319e+00
1.549422580406152772e+00
1.554011536847974995e+00
1.549533449607437774e+00
1.529220947149865895e+00
1.499157173968949097e+00
1.478214299326285897e+00
1.477689573883452345e+00
1.493643126563910295e+00
1.534498787380153884e+00
1.565545094351077138e+00
1.596653990634221421e+00
1.634507198603147193e+00
1.641431928222277792e+00
1.639309259373235461e+00
1.637842867034157601e+00
1.642445031212959705e+00
1.634005682591189279e+00
1.644679172184509541e+00
1.661902530635428477e+00
1.676725713969042575e+00
1.703485850257397960e+00
1.708210575090489902e+00
1.704960498224471266e+00
1.711468200437657128e+00
1.725560063229035102e+00
1.725573673221365345e+00
1.726568219799482495e+00
1.720668257502000920e+00
1.700189063841869297e+00
1.701358180173980994e+00
1.737398980724165876e+00
1.774408518556335412e+00
1.818783183453072994e+00
1.840720166948316638e+00
1.849883043118872417e+00
1.856109827939719459e+00
1.864625588927623756e+00
1.868132738932955395e+00
1.871037998460397755e+00
1.872872830256712140e+00
1.864346908800410318e+00
1.831410602413503064e+00
1.819426435129037234e+00
1.838366455349394357e+00
1.862105299483561849e+00
1.868810274099347968e+00
1.884752969124425581e+00
1.876861854294685328e+00
1.860950226621975734e+00
1.865643067810528466e+00
1.864138811594060918e+00
1.858011885148724396e+00
1.865650937171803969e+00
1.841704137523797691e+00
1.833117447123055133e+00
1.834365392677515194e+00
1.839085718629552169e+00
1.859756723069275086e+00
1.848341208927726020e+00
1.828329446849802142e+00
1.826434961908780963e+00
1.837079337045615990e+00
1.866340585373475580e+00
1.879608745017508298e+00
1.870349069958528121e+00
1.852077634348525459e+00
1.847030977213614866e+00
1.853810907917293083e+00
1.844167813383740029e+00
1.838474676894510385e+00
1.829773467681693688e+00
1.835713060870700408e+00
1.846662796926033856e+00
1.857364411936563320e+00
1.858532525750659747e+00
1.860871748765914102e+00
1.870164147474280281e+00
1.899647651951045901e+00
1.926261030360822080e+00
1.929784966352833697e+00
1.920667452615312465e+00
1.920799723785936886e+00
1.927327977721729146e+00
1.913825343522146394e+00
1.881557511689836648e+00
1.864087726922838417e+00
1.851630845436292638e+00
1.854846365712070178e+00
1.877309608441105837e+00
1.903384797305196052e+00
1.902470880647442186e+00
1.892659934669906896e+00
1.872158860051102325e+00
1.875288567278513785e+00
1.880548590528975161e+00
1.882770430086198488e+00
1.875891887054121021e+00
1.865529121568730186e+00
1.863960206246203732e+00
1.878677074256196899e+00
1.892531805490313745e+00
1.851419435474536801e+00
1.809010363846881519e+00
1.763159848633328197e+00
1.754825457796597599e+00
1.781324262750111131e+00
1.820651243243473383e+00
1.819217489795539100e+00
1.816827419898348950e+00
1.810068747578520654e+00
1.800073586950432958e+00
1.824616476643093455e+00
1.854261740119212076e+00
1.863770779037906777e+00
1.876274007459015403e+00
1.878437385829689443e+00
1.880187091352636397e+00
1.882767018064954279e+00
1.914410764335432003e+00
1.942439112772430532e+00
1.969632054996953929e+00
1.953937754221469092e+00
1.932636932659344664e+00
1.930958118973288062e+00
1.938260276473725341e+00
1.956039171727132153e+00
1.950306008917192635e+00
1.927823802716304158e+00
1.936460989562598600e+00
1.981098668714760258e+00
2.023530235872230243e+00
2.049781470263448035e+00
2.042497652382324613e+00
2.048306148461880749e+00
2.041887294790207807e+00
2.037331367479468192e+00
2.056440104029193972e+00
2.063954898980859820e+00
2.075646205091733254e+00
2.082911136956985931e+00
2.100541721749813462e+00
2.114540351366888338e+00
2.130338750342347875e+00
2.141148924951821186e+00
2.136146355359392679e+00
2.153133639801897647e+00
2.170738934155766575e+00
2.196022500105243580e+00
2.188971582901530599e+00
2.190301249026185726e+00
2.193632615732683089e+00
2.173617557404108336e+00
2.180850230586366845e+00
2.217887236454011646e+00
2.234764355757534293e+00
2.241307462728905353e+00
2.250941954896689801e+00
2.244769354581077181e+00
2.235133755693715862e+00
2.233415919734248689e+00
2.233960839720054103e+00
2.222037277314430348e+00
2.230820714587576248e+00
2.213510223566649504e+00
2.203395408876585471e+00
2.194633539473449524e+00
2.190025108256329123e+00
2.197023769922129333e+00
2.171735430921043708e+00
2.135417584897327359e+00
2.113857998368956714e+00
2.109684979172982366e+00
2.093741592802304208e+00
2.080522684819571033e+00
2.067945490390091123e+00
2.045643884609688268e+00
2.015010873625179499e+00
1.988677334053388090e+00
1.965902784424331529e+00
1.937134958471780077e+00
1.924604940590983082e+00
1.906333695927122651e+00
1.904146728631948227e+00
1.871181450749973108e+00
1.829079578162710940e+00
1.787585599919855772e+00
1.769013933469677502e+00
1.748974817773258472e+00
1.715903453986111549e+00
1.703315477998467165e+00
1.693133253245773684e+00
1.684096833358609269e+00
1.659226275328630873e+00
1.649386005015570866e+00
1.617603208445540064e+00
1.586082075298644645e+00
1.572380698456396608e+00
1.545035159033045113e+00
1.527900176678560484e+00
1.515691152472024905e+00
1.506436082623513917e+00
1.493889700892464534e+00
1.487032134219516966e+00
1.470456993322209138e+00
1.449217650629422982e+00
1.440898288680170891e+00
1.439599830662185775e+00
1.432474233452116774e+00
1.463521644417534739e+00
1.513657746467457654e+00
1.556334887992356419e+00
1.581882058461284268e+00
1.593406450898981808e+00
1.578315203674445444e+00
1.547312165251082394e+00
1.531084877829215429e+00
1.535606309513162460e+00
1.545756004417916385e+00
1.569974006733747096e+00
1.611588233816519722e+00
1.652865767688892040e+00
1.687251531988013920e+00
1.747791141735098197e+00
1.823192045430468200e+00
1.870244307526305994e+00
1.914208301495323949e+00
1.965010305368524390e+00
2.029196029269174861e+00
2.094600842714257727e+00
2.162214954308882664e+00
2.237695834804368733e+00
2.331666615973639889e+00
2.431394576862155432e+00
2.512375286731802326e+00
2.581747403492005155e+00
2.614372356914650641e+00
2.620108155889567136e+00
2.611945318635075619e+00
2.594014025189846251e+00
2.577223915243901153e+00
2.535913145498337684e+00
2.483561178382223567e+00
2.421385274049869363e+00
2.322145211250124852e+00
2.222960182949960117e+00
2.129333988075472472e+00
2.031004792849267382e+00
1.922934726138648243e+00
1.796741456961080452e+00
1.672936644732894607e+00
1.561196259582326995e+00
1.475895036785793035e+00
1.427934548423924088e+00
1.392352475998458461e+00
1.352518010747562283e+00
1.327040640334775201e+00
1.309889899906785171e+00
1.302385993248465823e+00
1.304504703266003762e+00
1.323277060479119305e+00
1.317315287195513385e+00
1.292687480961157043e+00
1.314823321030710090e+00
1.345072157780932365e+00
1.352453831268774831e+00
1.374074807425492928e+00
1.403707272816120621e+00
1.419952004835403514e+00
1.434376998450947571e+00
1.451348437928132729e+00
1.480342974796120981e+00
1.515629000670900339e+00
1.540071646975229580e+00
1.556760344075555302e+00
1.564873465218017401e+00
1.563312903949114485e+00
1.554218842142595314e+00
1.522788187343710797e+00
1.501343663926337113e+00
1.493344328434606849e+00
1.489311019580529472e+00
1.486902239200820874e+00
1.519188921113107105e+00
1.539329451157654738e+00
1.544650061738503055e+00
1.564805891119951831e+00
1.589807138043568102e+00
1.598417299613219544e+00
1.594389408474356840e+00
1.586137934337438438e+00
1.591077874914160750e+00
1.591332149947700225e+00
1.593233358335347294e+00
1.599424986987019848e+00
1.600448375390240319e+00
1.618430875499170529e+00
1.627116127336520890e+00
1.639517941947626234e+00
1.647880470567207878e+00
1.639538916547714997e+00
1.640989740807906827e+00
1.637857755246372893e+00
1.639160004703624995e+00
1.618071875066733778e+00
1.624335722773626589e+00
1.631998719419135657e+00
1.635602076426229345e+00
1.642676848923123156e+00
1.653516846519231143e+00
1.648965496494436023e+00
1.651260862684837072e+00
1.666913956604853198e+00
1.682182449473759167e+00
1.703640749628946516e+00
1.705792453735729186e+00
1.698643307661787505e+00
1.699520438980662185e+00
1.696936144542828373e+00
1.702563373148689552e+00
1.699382282553697721e+00
1.689539552483728668e+00
1.666596194382449214e+00
1.668124469211652361e+00
1.675559321323471185e+00
1.658365265532901756e+00
1.650704141864807628e+00
1.647488890360747860e+00
1.644350381596069166e+00
1.637402706329151414e+00
1.639620568717788718e+00
1.652579099897322212e+00
1.674467756999524326e+00
1.683308984473097070e+00
1.689897933725277968e+00
1.712629172746767292e+00
1.725305476182337427e+00
1.717467221720267112e+00
1.705976734316422050e+00
1.710777850638787179e+00
1.718886725460192499e+00
1.724415057604805401e+00
1.745441485376511892e+00
1.755472338272897614e+00
1.739769756843665416e+00
1.731830641447973829e+00
1.725308834246527034e+00
1.726820520107105850e+00
1.727769474513417780e+00
1.724339327509150754e+00
1.729717457605538300e+00
1.745584303668759496e+00
1.758340212395343105e+00
1.754585019276738933e+00
1.737037802500241312e+00
1.727977707828626031e+00
1.729607695603534001e+00
1.719199740439372404e+00
1.720981205256070901e+00
1.726930630525805199e+00
1.716213882779612510e+00
1.723033408418519929e+00
1.724862191201466777e+00
1.730826792141681780e+00
1.734423359240625295e+00
1.721511587306165048e+00
1.726190104751131882e+00
1.739036007264336714e+00
1.735531662164348621e+00
1.727798787098131950e+00
1.733157820838571839e+00
1.745439961764346570e+00
1.750932108850433711e+00
1.763821541127763126e+00
1.774587392307341194e+00
1.761702562795258942e+00
1.751176540912276591e+00
1.756334597554757959e+00
1.757567972051248040e+00
1.754678523602033913e+00
1.762775309460894224e+00
1.764078456240245618e+00
1.768405918643241259e+00
1.757320854520209696e+00
1.760507846861590231e+00
1.747362846567396932e+00
1.728044777768918516e+00
1.729355272720588310e+00
1.734632002675543738e+00
1.735661897496232342e+00
1.729485448928453906e+00
1.713720563511526240e+00
1.726428766652176705e+00
1.746243867825781892e+00
1.760079183995153729e+00
1.766485801991766191e+00
1.759396901315032125e+00
1.748140327886961387e+00
1.745571407622911186e+00
1.735426590101678546e+00
1.724535353991410780e+00
1.715188716110261247e+00
1.713072919481821277e+00
1.715801971438650320e+00
1.704944757525450827e+00
1.705823773864705295e+00
1.731902956985158948e+00
1.745744218199289266e+00
1.726641740486950294e+00
1.738775814723145796e+00
1.759156647785661498e+00
1.781514356282503764e+00
1.792253106426160425e+00
1.774210411537495258e+00
1.778252036376319678e+00
1.791229004464646835e+00
1.799232064695936328e+00
1.803737112660894315e+00
1.809643160037058607e+00
1.808645695476389204e+00
1.827536569171177572e+00
1.848401490566982996e+00
1.860701881876449804e+00
1.861585913057639097e+00
1.860251834114075464e+00
1.846189821863073899e+00
1.848913923585341790e+00
1.854728844611903682e+00
1.838990977529169069e+00
1.822002734104232635e+00
1.824624544612812649e+00
1.825255027639986150e+00
1.834417733471640055e+00
1.835086766474382181e+00
1.857998831913646454e+00
1.870387600020813501e+00
1.886948459252769883e+00
1.901019212130269587e+00
1.908842776031119293e+00
1.893922491824860277e+00
1.895134723255492482e+00
1.890457864254620368e+00
1.885012106237676122e+00
1.875452302135649951e+00
1.866825948034966709e+00
1.872349496874895713e+00
1.866062196299361098e+00
1.858567249468431326e+00
1.873194049833131647e+00
1.874309509218346825e+00
1.867537072984149171e+00
1.875196648102089192e+00
1.875917455872497808e+00
1.884830844914164860e+00
1.909134151542748015e+00
1.927332609029818400e+00
1.913369851915668773e+00
1.896889705482969646e+00
1.894653936749093770e+00
1.897837056435339509e+00
1.880736361854540295e+00
1.872944566671024491e+00
1.859812624810150083e+00
1.858474672156570806e+00
1.853579561856458779e+00
1.850258009835731077e+00
1.850564471471439987e+00
1.853290258178052152e+00
1.862181215650523747e+00
1.857818140535580476e+00
1.857546462120420738e+00
1.863854866197196758e+00
1.859859562465390193e+00
1.864919766699533632e+00
1.881937031949169281e+00
1.897726998699017065e+00
1.890254984581134057e+00
1.884514594962059419e+00
1.880924569646125200e+00
1.878731443122702682e+00
1.851891494694110962e+00
1.861986847013067603e+00
1.862015121815727259e+00
1.844788887409508638e+00
1.807172811876251561e+00
1.798731448573638758e+00
1.825576300214725389e+00
1.850680278004794843e+00
1.841827159372340539e+00
1.820161226748428396e+00
1.815195582121908791e+00
1.813544288853573327e+00
1.826253084960571371e+00
1.816350164598929284e+00
1.814533950735838008e+00
1.803337606707783758e+00
1.805059465917557615e+00
1.804721110236701342e+00
1.794073463059908224e+00
1.764339378246418732e+00
1.757954069974063671e+00
1.764288634449037163e+00
1.760392827519409842e+00
1.767254855597028218e+00
1.774003282236327639e+00
1.766040006216708091e+00
1.761702002945835899e+00
1.775855807403135866e+00
1.792211618125647110e+00
1.811356799216702562e+00
1.819487292450086002e+00
1.818971573528427088e+00
1.828660397280100103e+00
1.835318423572474877e+00
1.833740338233639466e+00
1.826598429500540632e+00
1.831740771243520527e+00
1.838351366742633441e+00
1.850667094101167809e+00
1.843984677669266325e+00
1.828431827294032308e+00
1.825681298134858466e+00
1.833349626373090624e+00
1.848379423330934745e+00
1.839695257786033711e+00
1.832720591078780714e+00
1.837741533205998312e+00
1.829679787165240601e+00
1.828156512244256460e+00
1.833443127527075500e+00
1.827138462907473615e+00
1.827254329696241131e+00
1.832567767659600610e+00
1.826455463134486923e+00
1.831968410419447135e+00
1.843433476549760863e+00
1.858514039339123514e+00
1.870490860736227834e+00
1.859935897021907980e+00
1.854615706387550578e+00
1.837194237006162911e+00
1.829394210672549370e+00
1.832306585960981504e+00
1.823218655252861975e+00
1.787316435531364878e+00
1.765997447041665058e+00
1.776854865471060752e+00
1.782365998978090227e+00
1.774157123961483062e+00
1.764842311081738391e+00
1.767420032517684536e+00
1.764022072139014741e+00
1.749341418915438817e+00
1.750320808565815511e+00
1.773981940376569977e+00
1.783091106008402926e+00
1.784028424292269044e+00
1.774211537192210919e+00
1.762378695362619041e+00
1.732164301559473651e+00
1.738378325565559601e+00
1.751008844425010702e+00
1.759451601630199535e+00
1.752481778508220955e+00
1.731049059925339861e+00
1.728308569878354017e+00
1.721676752819543355e+00
1.725548119807687186e+00
1.739252823320282193e+00
1.743156258813534532e+00
1.722576356827717703e+00
1.707407383084061703e+00
1.724113905780556122e+00
1.739773208356330425e+00
1.749867723142905174e+00
1.757442411131109550e+00
1.768978646152706169e+00
1.794294349227436802e+00
1.813995443300662647e+00
1.799764943941444706e+00
1.778515681761630329e+00
1.776105619785630640e+00
1.769646403869856943e+00
1.787929641942312076e+00
1.795520517704807251e+00
1.801312754606228861e+00
1.802916301116658460e+00
1.802863955656914374e+00
1.784469873502633419e+00
1.779727485808249909e+00
1.794132252921745607e+00
1.793955574727671864e+00
1.781912317322363215e+00
1.773567100328181212e+00
1.788282812772889141e+00
1.800856754522062175e+00
1.797352569289568436e+00
1.779374661593115858e+00
1.767888654371258639e+00
1.758598105264614908e+00
1.738094286267900523e+00
1.736392257464547617e+00
1.726772413403027784e+00
1.721855251371686268e+00
1.713886751357494020e+00
1.687710116954620254e+00
1.676841981669119130e+00
1.672012832805686466e+00
1.680669400607548880e+00
1.687360158185878145e+00
1.689029582429636189e+00
1.687777742750139698e+00
1.706530465276609565e+00
1.704793230112118696e+00
1.706061707212017886e+00
1.709431176410897812e+00
1.705620598671080401e+00
1.708025286164987833e+00
1.721054171749204054e+00
1.724601033058324795e+00
1.729365703574218260e+00
1.728875997667686404e+00
1.711762315745543273e+00
1.698671203849174027e+00
1.690399251229727895e+00
1.687744564763171251e+00
1.696299180218479918e+00
1.702164508502066020e+00
1.697021295439389288e+00
1.693761521442074258e+00
1.697918918313823688e+00
1.707711364148601696e+00
1.714262520829942238e+00
1.708517824007575125e+00
1.698051124496038566e+00
1.685991530679161965e+00
1.686595812716507048e+00
1.705660596947204954e+00
1.704045361140057668e+00
1.673038235670376572e+00
1.650835264429737714e+00
1.647160866187716621e+00
1.639070250577966847e+00
1.654909940748424457e+00
1.651266405568926121e+00
1.640936837889485744e+00
1.625508188226852724e+00
1.603418346209519285e+00
1.598146631674171481e+00
1.594202952726752942e+00
1.593287406272430040e+00
1.609770424116214294e+00
1.630997692882460992e+00
1.656326468783410499e+00
1.661384361545018340e+00
1.645480502821008884e+00
1.623053872381077456e+00
1.631617155514501594e+00
1.647383153283829671e+00
1.661630809528907182e+00
1.664674760382146346e+00
1.657964222050589242e+00
1.646228198416395117e+00
1.638016656954903061e+00
1.625883458039309115e+00
1.630843376430720415e+00
1.654596806712769430e+00
1.659314542377964496e+00
1.648372738301245644e+00
1.662660077405045955e+00
1.668040291526961649e+00
1.667378804022819239e+00
1.664188371868077443e+00
1.666205543748569440e+00
1.684772978589006875e+00
1.686737667433404919e+00
1.698428936522869748e+00
1.689230181773609507e+00
1.699295949564562314e+00
1.711807710598803878e+00
1.712855991410575651e+00
1.711951746676974029e+00
1.717926586235688724e+00
1.703183842754944610e+00
1.700111384003298198e+00
1.701796741067053587e+00
1.677721560275219570e+00
1.674102707186270411e+00
1.682928045891750823e+00
1.685266026648310600e+00
1.683178010743797692e+00
1.687129990042193661e+00
1.696261526014388732e+00
1.685973293953614505e+00
1.703901278563375365e+00
1.709164702133547653e+00
1.704052954422913047e+00
1.686371457183804434e+00
1.676214449061805389e+00
1.660672834241946116e+00
1.641717391941154514e+00
1.624615384529343842e+00
1.618113615442212438e+00
1.598495384218406645e+00
1.590471919429451653e+00
1.583196640131477873e+00
1.590496699436576344e+00
1.602802500144697717e+00
1.603795235493165716e+00
1.598414012456625954e+00
1.592587144330823934e+00
1.589067465237790744e+00
1.598978897576398772e+00
1.593785688602814332e+00
1.592900098479939075e+00
1.603166381851094169e+00
1.614693475959733338e+00
1.592969986869117838e+00
1.558330031891907552e+00
1.529914789453316271e+00
1.505983311175197681e+00
1.491898802682309455e+00
1.480598291608290262e+00
1.488651675021853027e+00
1.484552818670103580e+00
1.465345775797378902e+00
1.460590827966933514e+00
1.457069332222537206e+00
1.430369973875894596e+00
1.409471282453678809e+00
1.392407963751418620e+00
1.405629805276253919e+00
1.428272947484841904e+00
1.436197627409816491e+00
1.428652592041190328e+00
1.440543131909538532e+00
1.450440062636646932e+00
1.439508201748340710e+00
1.439631235549472255e+00
1.433910964487607131e+00
1.456202123623235423e+00
1.467765544796503896e+00
1.457419907460153485e+00
1.453744417319857707e+00
1.445144812648471166e+00
1.432711972333303940e+00
1.406178800015294161e+00
1.416502365283089482e+00
1.419542731355649234e+00
1.416397195394830222e+00
1.401219822218968902e+00
1.404294142542782842e+00
1.416772700816092634e+00
1.414443762515599001e+00
1.408765638082434268e+00
1.398441700404506438e+00
1.393633578094855441e+00
1.395481210189389198e+00
1.400414348091969297e+00
1.415475637990186275e+00
1.426386169648358404e+00
1.434146114128340921e+00
1.423133203809754166e+00
1.413825499785962947e+00
1.402588154537386611e+00
1.394382034010651861e+00
1.387266143070441604e+00
1.376646715355598793e+00
1.354979325208775842e+00
1.351473479854255144e+00
1.344570877164595890e+00
1.329267516775969327e+00
1.325204262829914992e+00
1.327998281668768321e+00
1.333426304230535431e+00
1.324704219500858482e+00
1.307618155231667467e+00
1.283363233326700437e+00
1.264240388909086743e+00
1.264867165507963964e+00
1.274453461732229620e+00
1.257337689926477431e+00
1.237365230434485763e+00
1.238330546861836856e+00
1.236526527304045331e+00
1.236726363965452657e+00
1.252649032801373963e+00
1.283061654664817031e+00
1.300065452250707132e+00
1.321260887696382280e+00
1.320915519342569233e+00
1.334773989270878758e+00
1.371076801695973568e+00
1.402375777161172676e+00
1.444821889279733096e+00
1.481915902479375324e+00
1.504017071749964352e+00
1.535986838620235995e+00
1.577691966632541520e+00
1.631589518099298752e+00
1.707118762929220601e+00
1.736336094010821451e+00
1.766788183858063022e+00
1.818282185460068590e+00
1.890699570501354732e+00
1.940379515137777178e+00
2.004828229521468774e+00
2.066950815006082465e+00
2.151026409083563795e+00
2.230351764289906669e+00
2.279778637087658932e+00
2.315315243403064382e+00
2.337638513090369408e+00
2.347268174901004034e+00
2.328141025436089695e+00
2.291752942332480725e+00
2.252598736884061648e+00
2.203893582385942462e+00
2.153594598779130287e+00
2.080048352700941905e+00
2.008435610266639859e+00
1.918859554027405157e+00
1.822824211611951739e+00
1.720009406877226699e+00
1.621922676234755389e+00
1.529051211750010797e+00
1.414855153968047397e+00
1.326230895720197367e+00
1.275628035835985941e+00
1.244218236165526736e+00
1.202779558597007803e+00
1.183240770903503103e+00
1.169923157186825824e+00
1.147044215448123294e+00
1.138662228927918019e+00
1.160069769247964899e+00
1.185620058395101761e+00
1.180589164371020683e+00
1.181036150755122804e+00
1.189613417567989773e+00
1.184134198383321790e+00
1.185335167387563615e+00
1.168946220005166126e+00
1.178986538277281060e+00
1.187420214165289867e+00
1.198714053661716239e+00
1.190594942682006385e+00
1.189820567228318193e+00
1.192222337133271415e+00
1.190773114545419897e+00
1.199665067877367486e+00
1.202535717262102732e+00
1.199246111922318558e+00
1.209675158991865285e+00
1.221519965615901704e+00
1.210264137740319379e+00
1.202058986739592328e+00
1.210223995175208955e+00
1.226712130756109964e+00
1.218479535126387292e+00
1.207639147070560526e+00
1.215510208854506669e+00
1.234852232603642186e+00
1.253922796613355484e+00
1.241248475775819093e+00
1.233534263827545274e+00
1.232107342843729691e+00
1.231499654906794028e+00
1.239130416169042848e+00
1.259623702836478509e+00
1.278554524990803021e+00
1.278575440414630116e+00
1.278939167792469522e+00
1.311176890579216936e+00
1.318340304122989748e+00
1.315295601620917854e+00
1.300756004368282870e+00
1.291853123445924290e+00
1.316863999074647129e+00
1.319213345963287987e+00
1.333365215172865881e+00
1.344928523978825119e+00
1.359376837520022807e+00
1.373777889253730011e+00
1.377020909042274255e+00
1.362371297718815377e+00
1.347721090017069079e+00
1.343999680740972202e+00
1.330699422138626353e+00
1.312274897607549118e+00
1.298431399925894070e+00
1.307286016775943471e+00
1.301355142897625106e+00
1.307476580961886903e+00
1.312454650279363921e+00
1.290917543751035845e+00
1.273256243032470980e+00
1.272713534373078215e+00
1.269707149980451977e+00
1.255795522529930652e+00
1.249361796708852168e+00
1.240592368700223158e+00
1.238926296194864829e+00
1.245243472050969968e+00
1.260666369205624804e+00
1.278854089535523819e+00
1.285581294207711611e+00
1.291042899592777182e+00
1.298639820439051240e+00
1.301064138744553400e+00
1.295594758994698559e+00
1.304096664315642196e+00
1.329205192203712471e+00
1.345724377197124122e+00
1.360948632552915649e+00
1.361783013333737413e+00
1.354675376754072680e+00
1.361237712018223744e+00
1.365926703190595282e+00
1.356344484890545266e+00
1.347110195615385031e+00
1.340304568162227206e+00
1.344946246581304905e+00
1.357649964224763917e+00
1.343513407747606303e+00
1.323584918758221374e+00
1.323460194985497163e+00
1.309408122527536023e+00
1.308732049613038573e+00
1.318083452563622249e+00
1.302960568174703848e+00
1.285383452128231463e+00
1.292176895527156866e+00
1.290606864405014154e+00
1.284245698231682109e+00
1.296306036205973289e+00
1.305089894257999816e+00
1.304250516473947963e+00
1.294251533155254874e+00
1.282511653179591260e+00
1.287434436486205147e+00
1.294458988739410898e+00
1.268565235971150562e+00
1.262278804237827012e+00
1.244340032848652911e+00
1.232034448386257752e+00
1.235206715104036679e+00
1.236293000782560547e+00
1.238822233240480575e+00
1.243353881894561752e+00
1.231417382503596780e+00
1.245195899941761608e+00
1.259653626600877097e+00
1.266087453925840656e+00
1.279695719065340187e+00
1.303727578381955965e+00
1.320894078410138617e+00
1.312581011539716735e+00
1.306790378873502689e+00
1.307031113958296187e+00
1.299583201413051725e+00
1.286044632132401055e+00
1.279237140513728832e+00
1.247757650746391667e+00
1.208530870126095280e+00
1.183028375378585739e+00
1.181118384122476606e+00
1.189504146544826613e+00
1.191858333044913731e+00
1.209026271738081526e+00
1.222546671554824993e+00
1.246700965640772374e+00
1.252142217431036819e+00
1.265952745555476433e+00
1.287466268745425246e+00
1.295466662376629774e+00
1.287798400618322070e+00
1.269789378389517776e+00
1.277522552289445557e+00
1.286185173499853507e+00
1.314373826948611601e+00
1.311912143809500719e+00
1.303602007512310479e+00
1.294453580626001798e+00
1.301212480548248784e+00
1.309158195673389979e+00
1.304326244727646245e+00
1.321772061211232696e+00
1.321594344482852623e+00
1.312702657599877032e+00
1.304610317608325465e+00
1.303633570012689979e+00
1.288848595322234392e+00
1.271323148088317811e+00
1.258111836323922761e+00
1.243734047519099661e+00
1.249960391651149250e+00
1.261819365272328852e+00
1.271282223210885132e+00
1.269584234012967494e+00
1.275031270198968336e+00
1.256930001489413806e+00
1.244253879190656553e+00
1.237909635216921878e+00
1.227006370194315688e+00
1.244974554315584125e+00
1.286315310499879239e+00
1.314401745198909843e+00
1.297264658308666885e+00
1.291550395092015080e+00
1.267373681378452632e+00
1.263184095359580539e+00
1.257817554045912001e+00
1.230366142532948182e+00
1.215548615896420159e+00
1.215581735095035087e+00
1.207972849828475859e+00
1.213630980604042620e+00
1.216534557612466649e+00
1.223501943644003109e+00
1.224658309224605945e+00
1.221581606196076253e+00
1.207373484468825753e+00
1.199175117458998852e+00
1.194258252336014348e+00
1.194574055045279248e+00
1.194597320026903997e+00
1.197571004811599948e+00
1.199472796851659417e+00
1.204993714198459021e+00
1.211962476873518657e+00
1.239102845116855089e+00
1.257353716353664552e+00
1.281726230833735158e+00
1.274858616393758748e+00
1.275227104859309124e+00
1.268809500602098073e+00
1.264132449773786471e+00
1.269306544463193909e+00
1.275672444193503896e+00
1.273143087128620454e+00
1.258792992897300067e+00
1.229539605687874904e+00
1.218172219001291801e+00
1.205489566020855108e+00
1.196641930166031376e+00
1.193766073549187956e+00
1.191955090255970351e+00
1.183413659592178924e+00
1.193804564591532280e+00
1.197279027460496081e+00
1.204919118214281326e+00
1.203936330948090383e+00
1.193456856867987081e+00
1.192642394266867800e+00
1.187966807591281704e+00
1.201089014035685576e+00
1.212755486362199431e+00
1.223033003365125548e+00
1.202477430371130529e+00
1.209169738546565842e+00
1.208270379908080727e+00
1.212548676526718605e+00
1.206797670043197712e+00
1.187712003919609405e+00
1.172349138796821011e+00
1.166630123325914870e+00
1.181546981645214434e+00
1.197353273640473059e+00
1.207216445885845202e+00
1.205273054735802596e+00
1.214706977103269470e+00
1.195133671940093123e+00
1.189984041457307740e+00
1.190548515391741669e+00
1.199738610005903539e+00
1.199343625344002184e+00
1.190083389309269268e+00
1.191760031134469822e+00
1.159256254898243022e+00
1.146408286315530489e+00
1.126027678376622099e+00
1.103031111990393942e+00
1.077689197556939593e+00
1.047070380673007062e+00
1.028310406250336762e+00
1.027556208362772727e+00
1.016010572686016689e+00
1.013621234335909005e+00
1.049318748798496070e+00
1.073387114983161528e+00
1.080903118439464627e+00
1.083361472089319655e+00
1.092106189372494596e+00
1.094358341195734940e+00
1.068683078947281206e+00
1.061064814207474338e+00
1.052407169483672966e+00
1.038612701135534166e+00
1.054307472255449962e+00
1.069437783901592720e+00
1.081083583467558951e+00
1.089808507651241154e+00
1.080309431819424404e+00
1.073402564373021395e+00
1.086403495786201434e+00
1.109380721051299146e+00
1.109314337278254570e+00
1.094365985252848006e+00
1.069940142160332952e+00
1.053860380532230634e+00
1.061118935354228965e+00
1.074992638309614001e+00
1.091216099610391010e+00
1.113018292483401339e+00
1.127101511671486866e+00
1.119246204508672182e+00
1.118244953583206414e+00
1.123945571421972822e+00
1.123265036273086714e+00
1.106332028943462609e+00
1.106277996817133680e+00
1.111899729077522991e+00
1.107308896749233940e+00
1.101092279067614754e+00
1.114244469656998859e+00
1.109245616004919333e+00
1.085168047244353229e+00
1.057943439850635325e+00
1.049123928287336582e+00
1.044737532301466265e+00
1.031686772070711022e+00
1.041470559714977595e+00
1.029596197847679750e+00
1.023227415662754991e+00
1.009043390743044277e+00
9.967050548392437648e-01
1.003150444853128320e+00
1.000220459880784007e+00
9.704998404686419056e-01
9.476761400890184595e-01
9.333608237943413766e-01
9.203538796912424935e-01
9.131746863680443305e-01
9.047977284314824287e-01
8.891425919731958949e-01
8.920677947391781881e-01
8.964708123991129707e-01
9.021923576701486036e-01
9.100654138859449738e-01
9.222211123265591226e-01
9.335318690672180786e-01
9.232475921076385150e-01
9.190299804264958627e-01
9.279889566540749923e-01
9.328247621714059745e-01
9.514390803129153529e-01
9.570646578288136697e-01
9.616062890306226185e-01
9.560282630728945685e-01
9.421776097532837957e-01
9.328893572760730279e-01
9.207583592556505270e-01
9.264586427944616620e-01
9.148960658536575696e-01
9.074005575050075878e-01
8.984004821004226704e-01
8.988669683254215670e-01
9.006091608726093378e-01
9.087521477664952663e-01
9.336125889738182693e-01
9.697205828009493045e-01
9.921971553683612832e-01
9.884576154900373002e-01
9.817393127922779961e-01
9.583906991324404601e-01
9.726017887559358366e-01
9.776034680697283097e-01
9.692467342981438971e-01
9.622562459313792615e-01
9.587239058800204328e-01
9.480982917641579411e-01
9.509615380792654227e-01
9.560309497560951497e-01
9.480478433676021721e-01
9.522439095771572104e-01
9.506771244138141341e-01
9.422894063249592778e-01
9.434092260395201546e-01
9.593290261183119449e-01
9.399362216675883896e-01
9.477417524421603012e-01
9.498833439345217844e-01
9.416879423704652696e-01
9.382446341799134393e-01
9.662062743583772484e-01
9.833105678768225832e-01
9.867899527508439128e-01
9.645178303698638267e-01
9.478212318908106893e-01
9.425032932171075739e-01
9.418023307269471900e-01
9.348952044188635346e-01
9.343296673562986321e-01
9.208390668302683935e-01
9.238924002119602852e-01
9.295578843664075164e-01
9.369771792049034209e-01
9.262977157245252391e-01
9.185164839792243630e-01
9.156854873038507980e-01
9.042873342962187699e-01
8.914136920313019408e-01
8.918991305770045397e-01
9.087838905957965618e-01
9.167439509168049394e-01
9.377034486011831538e-01
9.566336575434573053e-01
9.534939650488858387e-01
9.473772520158700861e-01
9.561812590216843821e-01
9.575878392165200204e-01
9.568214102977649071e-01
9.548241922156123218e-01
9.605369763420475993e-01
9.513060303665392681e-01
9.531103383673621421e-01
9.611120461306587037e-01
9.552311471220197303e-01
9.482054795519531121e-01
9.579157447449222484e-01
9.790806723813036960e-01
9.984852273781719134e-01
1.003406181630952076e+00
1.005097584412774303e+00
9.898877116917308427e-01
9.756462009161926963e-01
9.714348951514217845e-01
9.853367715556271555e-01
9.920904608932599178e-01
9.940920002236627306e-01
9.844885264151397308e-01
9.763143051794433980e-01
9.785833307055216146e-01
9.764759130958143851e-01
9.671148605153103706e-01
9.567269456507673242e-01
9.725821629216908626e-01
9.749944017458729295e-01
1.016927000562189765e+00
1.032096037285092027e+00
1.034804107442676147e+00
1.048182220578117496e+00
1.047146757142722429e+00
1.042774093736478447e+00
1.045510735798772961e+00
1.057146004563179753e+00
1.066449288480105118e+00
1.085446510368745177e+00
1.088845041625626342e+00
1.098725077674866490e+00
1.100896253609971343e+00
1.108338244069341672e+00
1.097784929282083155e+00
1.074379198109157496e+00
1.067870161394153250e+00
1.064466043457710009e+00
1.067432799908091923e+00
1.064992057593411090e+00
1.074430747834535183e+00
1.069519289575095566e+00
1.096790531180859229e+00
1.127040853870078241e+00
1.135446454670254068e+00
1.132732749726841792e+00
1.105466342368109256e+00
1.103132094465419932e+00
1.110403958507020894e+00
1.099047197877026871e+00
1.067683961982659913e+00
1.046286751021118455e+00
1.036515672569285229e+00
1.015384733424111952e+00
1.008281862613016333e+00
1.012383534530386431e+00
1.001471715875842383e+00
9.860872018466243505e-01
9.734343032555301534e-01
9.797015511557014555e-01
9.700881403542525039e-01
9.545393863619155983e-01
9.356161072857526184e-01
9.162057618964614125e-01
9.029895569461032778e-01
9.106377123431367293e-01
9.094134640601042596e-01
9.005958045756908836e-01
8.966641538336395101e-01
8.935264890243204139e-01
8.897401192061861197e-01
8.837597952035731730e-01
8.614590571478835113e-01
8.560131665305539261e-01
8.408025260470834983e-01
8.334649459240385250e-01
8.438426841184289984e-01
8.623550858213040460e-01
8.723283297761712518e-01
8.775975631682577660e-01
8.589669715769225888e-01
8.419198243680581228e-01
8.525950600555017855e-01
8.496843046638947738e-01
8.365504954153089034e-01
8.399101900129695153e-01
8.459907455155861733e-01
8.485049829663662280e-01
8.520182781568865771e-01
8.364094246123676690e-01
8.365370627636730116e-01
8.346681932755564137e-01
8.244713510980281601e-01
7.991896608233457489e-01
7.921055778488094168e-01
7.847243352419818185e-01
7.909502893125793799e-01
7.968412902839892009e-01
8.054720621092679167e-01
8.008983590449652024e-01
7.721072733607000638e-01
7.526696793777536421e-01
7.644075094124800351e-01
7.577693742518386566e-01
7.670741929452009611e-01
7.547127689862256350e-01
7.230861798663847928e-01
6.981365468869096258e-01
6.691328082547940426e-01
6.524815336278746436e-01
6.359477246979894360e-01
6.182424232695390431e-01
5.979658937543685937e-01
5.891788608402138694e-01
5.738280963308438620e-01
5.611615043758551025e-01
5.566722940128514541e-01
5.344468970876200542e-01
5.247944813440883483e-01
5.194412919740711843e-01
5.148138600575891122e-01
5.123024655778858349e-01
5.216233562679665203e-01
5.247872840086444945e-01
5.281612624603392314e-01
5.499093007988582471e-01
5.758440733388657806e-01
6.035012736409266498e-01
6.379634752270204601e-01
6.553900692407887973e-01
6.477056998699480816e-01
6.299147063970228499e-01
5.921502011709914859e-01
5.644290274623373627e-01
5.803152343221965603e-01
5.896073215689977554e-01
6.181900032541497447e-01
6.683310306886285357e-01
7.069511984830567641e-01
7.458144995176569925e-01
7.853364762787594655e-01
8.191321987475499444e-01
8.931254869144775732e-01
9.695752888584281415e-01
1.038558477249164724e+00
1.118409101286500729e+00
1.194828330877867328e+00
1.269491334916610814e+00
1.355771203280702553e+00
1.438222398904006161e+00
1.524461935029054915e+00
1.625146284327209978e+00
1.702318577003325784e+00
1.757796594611523933e+00
1.780691855240278842e+00
1.780576448272506163e+00
1.759274199234359903e+00
1.726999938576223581e+00
1.686685386307083423e+00
1.641902786228799593e+00
1.572908671695541161e+00
1.457110509509774943e+00
1.356568697255232436e+00
1.265679021220685874e+00
1.211256754797920054e+00
1.140003247324480551e+00
1.034199137641341082e+00
9.197970932617736128e-01
7.698642378299810352e-01
6.563757789747719507e-01
5.665909534792318292e-01
5.231076903170768233e-01
4.800468921471966466e-01
4.590338578327686214e-01
4.493799695825336227e-01
4.483049320036312513e-01
4.533211659343260314e-01
4.705882661969910119e-01
4.952519606754479664e-01
5.034047520520725794e-01
5.282497751807619935e-01
5.672325400334028433e-01
6.145792138821792872e-01
6.608419989620123447e-01
6.802595301406575423e-01
7.233204135823307901e-01
7.560199629981055880e-01
7.637725476722143636e-01
7.555964963689481007e-01
7.236597679537591921e-01
6.912183121886363857e-01
6.928642768947104180e-01
6.903760347405126785e-01
6.734851593845377904e-01
6.395666688420980073e-01
6.062381653071479137e-01
5.472536654575473891e-01
4.969626017726367917e-01
4.906680090737457478e-01
5.006509131688501313e-01
4.996026146141971935e-01
5.009623580287843048e-01
5.309010011292778497e-01
5.642503000628867893e-01
5.839865579634286874e-01
6.008203782137240268e-01
6.131004360776799444e-01
6.341129581284137284e-01
6.562864525199986199e-01
6.790781497466943373e-01
6.733840336744995048e-01
6.775139933098536238e-01
6.848787385334667022e-01
6.923818885116851396e-01
7.008528010082315518e-01
7.119086907870003644e-01
7.194339165895068389e-01
7.219598289957465109e-01
7.352072837044634213e-01
7.230004610759453998e-01
6.982304815068678394e-01
6.743955998227451065e-01
6.776783348499308968e-01
6.828665184098151597e-01
6.848948030950583465e-01
6.866643420446565393e-01
6.708047193873130087e-01
6.432140770928063134e-01
6.329091204359741374e-01
6.242137578439403978e-01
6.364528806636143843e-01
6.279195105347834538e-01
6.123958230136112846e-01
6.150990714555003569e-01
6.213004844447664876e-01
6.199517602009284589e-01
6.208066816213728689e-01
6.222616311626065766e-01
6.235348830297515743e-01
6.283076278506294354e-01
6.253283264226138227e-01
6.157553352991671503e-01
6.214609463484732643e-01
6.410915974855042609e-01
6.414243544520261686e-01
6.568648241958878753e-01
6.499518732831263135e-01
6.262313968548607335e-01
6.223424601395879385e-01
6.382578625368634517e-01
6.374329060910837175e-01
6.345463045029324789e-01
6.076290280232587993e-01
5.901602509514373152e-01
5.759764852946764879e-01
5.668657108910899467e-01
5.768074589500351568e-01
5.762284689764629597e-01
5.682314343890267905e-01
5.487178310950473481e-01
5.303671323107247426e-01
5.063769440796950239e-01
5.023867293423767144e-01
4.926699380823529317e-01
4.994649671557569448e-01
5.249938332856234346e-01
5.232867137892626141e-01
5.160938658159477388e-01
5.164024700195023465e-01
5.125067110898573475e-01
5.160711402333842956e-01
5.297769143906823075e-01
5.113239288099526991e-01
5.022660603284614389e-01
4.883396129680798725e-01
4.752394795871187072e-01
4.731533538184187759e-01
4.764347101441460119e-01
4.721008012027076983e-01
4.600589284078596686e-01
4.646523139067259556e-01
4.632979860522706272e-01
4.698901749197235689e-01
4.625387893689132945e-01
4.437260485072034299e-01
4.200732699065790055e-01
4.058394603214494079e-01
3.906558060432501756e-01
3.915697622962838742e-01
3.607256639736673987e-01
3.494877012075246481e-01
3.523138319514096950e-01
3.391147493078230934e-01
3.352992636045754593e-01
3.304914458897064145e-01
3.102325481751341818e-01
3.005483441013874213e-01
2.878754490759311002e-01
2.869543667700216183e-01
2.813835447970837178e-01
2.717846240618300158e-01
2.633840169761045846e-01
2.742897676234455351e-01
2.591874317784579329e-01
2.571055609030464817e-01
2.628301507376318291e-01
2.626473528410405711e-01
2.662920632727057146e-01
2.710884401514335185e-01
2.853723877890277372e-01
2.845058992213410631e-01
2.907520526025837437e-01
2.857088710898885164e-01
2.944927976970980743e-01
2.936457493009963504e-01
2.881137226466231605e-01
2.793644838593506985e-01
2.856620602206875748e-01
3.060772297631176309e-01
3.086522255111274760e-01
3.220721803180676135e-01
3.320901755597377436e-01
3.257729108063732726e-01
3.059966471840528390e-01
3.038172256308567798e-01
3.061712651953281683e-01
3.158162963210028318e-01
3.027888610864280516e-01
3.000842844710992496e-01
3.078271603676993595e-01
3.089739367733138620e-01
3.015191027647701194e-01
2.868206108620722228e-01
2.698729986883191545e-01
2.555944856450377278e-01
2.527005419747155868e-01
2.622161768630669187e-01
2.699884274265688111e-01
2.866981753587777848e-01
3.045705428414351434e-01
3.163948330956493082e-01
3.082250829189722152e-01
3.107742326305529823e-01
3.113727373319218339e-01
3.175577937891210789e-01
3.447544438605623096e-01
3.716802867205056260e-01
3.926848465154079704e-01
4.048887620317501157e-01
4.160912117291188927e-01
4.092718336616777974e-01
3.784262766996776550e-01
3.244775002396002028e-01
2.922172638211460449e-01
2.861228263898735191e-01
2.867816067233733834e-01
2.912555739627302742e-01
2.734363119026941846e-01
2.763369269596680500e-01
2.840146418844893272e-01
3.058159086360555667e-01
3.119540283884614240e-01
3.373261041755288847e-01
3.571754805512344366e-01
3.551736178486019635e-01
3.667522533044302313e-01
3.547570146658413637e-01
3.529486780546721159e-01
3.660771922202172290e-01
3.822124805769303024e-01
3.759930866116274473e-01
3.691093985006300149e-01
3.829309471745945270e-01
3.862431060487577228e-01
3.675481745112059162e-01
3.355206046835745304e-01
3.271860919339328877e-01
3.330687947102487501e-01
3.244294926607420582e-01
3.169972397809881492e-01
3.197421179701498972e-01
3.069380580117559987e-01
3.054605130994947904e-01
3.064532823918743043e-01
3.253362128518110796e-01
3.333038450655276264e-01
3.332321750681876971e-01
3.274497140843445897e-01
3.203935816862343300e-01
3.159852706352352381e-01
3.092195640936664658e-01
3.263401358968002208e-01
3.203259802615115448e-01
3.278842033132902123e-01
3.374272810781390186e-01
3.374570108402356050e-01
3.290179012894940969e-01
3.422039302057270360e-01
3.643603328289968246e-01
3.559375090628694727e-01
3.504430170162676772e-01
3.543101402007529099e-01
3.543925469406550843e-01
3.455556992730262622e-01
3.511929581144527246e-01
3.581053245213426939e-01
3.485484131669762120e-01
3.359802335268797235e-01
3.290564544600008690e-01
3.278195732495592929e-01
3.271021111181136587e-01
3.368735226583716713e-01
3.303874149065695320e-01
3.208658320848216117e-01
3.175703268920185840e-01
3.211271258365723802e-01
3.296886863214233410e-01
3.339178233144641794e-01
3.329233699361743293e-01
3.386435365801889752e-01
3.404188581436865535e-01
3.240543041469428065e-01
3.196972565018783019e-01
3.144513175113086145e-01
3.234158125655595684e-01
3.295372423988798816e-01
3.147818883818797042e-01
3.243628676608201200e-01
3.630911177105752841e-01
3.665921186059097892e-01
3.415811497740601221e-01
3.262516491545979225e-01
3.062081931378256572e-01
2.666723532786476891e-01
2.286034227824191578e-01
1.977122638812786881e-01
1.961346606746922350e-01
2.343489288107882262e-01
2.236852307268760165e-01
2.202993439727713165e-01
2.293050787680198099e-01
2.565667092653111103e-01
2.767053346675567016e-01
3.004721372490500308e-01
3.186922569097231372e-01
3.337326984319492484e-01
3.238628190117223693e-01
3.062361195871498021e-01
3.012664397430869778e-01
3.170261822773062232e-01
3.363536664500992313e-01
3.572701809812033336e-01
3.575704137853989995e-01
3.466929407331642565e-01
3.814578423333319090e-01
4.030675671880075139e-01
4.093260055935333264e-01
3.708224691313448673e-01
3.430527806327029472e-01
3.465133168634099148e-01
3.585119300658867747e-01
3.449899889774113992e-01
3.327598663356950426e-01
3.325539980528867123e-01
3.391622103786660625e-01
2.950201955836462275e-01
2.780472080072235452e-01
2.976769378252709930e-01
3.147229967745023838e-01
3.086939494252448624e-01
3.101772827843858327e-01
3.053657030172802767e-01
2.876041588553263639e-01
2.898252771665382754e-01
2.889112013448926208e-01
3.023742604187892868e-01
3.161831223553868697e-01
3.168331046419031183e-01
3.235799324892947304e-01
3.212301383042273084e-01
3.154997620984806295e-01
3.048034286928382186e-01
3.116643089631508934e-01
3.192539458778008710e-01
3.183841657484903775e-01
3.354342553832672102e-01
3.640812173902485682e-01
3.691057009674932332e-01
3.632570078682035297e-01
3.460046588746926721e-01
3.238662625760998504e-01
3.226193700408709897e-01
3.157735158770595407e-01
3.203142350381167347e-01
3.295940395994709782e-01
3.091428003958592297e-01
3.049740715039759298e-01
3.000157493029520506e-01
2.897746255429869411e-01
2.905615969858378334e-01
2.919349224545370047e-01
2.923201241666060213e-01
3.144899760923726140e-01
3.495161494376793909e-01
3.601466969871069956e-01
3.530148752159897318e-01
3.223680884832035298e-01
2.897444595105698184e-01
2.671190542005365542e-01
2.617504880118654009e-01
2.597116861866669568e-01
2.586939290122790558e-01
2.678146235896431970e-01
2.597200224432939519e-01
2.514455836037414738e-01
2.365828870797424821e-01
2.129171911306680376e-01
1.947959234536064677e-01
2.061905815475972292e-01
2.163364672651108822e-01
2.107067984021596674e-01
2.159481614698189611e-01
2.312886336832259970e-01
2.317860290276208546e-01
2.285554461412829808e-01
2.399689050868252793e-01
2.361302577982666295e-01
2.385161898190478191e-01
2.351507410275499865e-01
2.253685105152772317e-01
2.153945447850718897e-01
2.387226379043155822e-01
2.362527809245309474e-01
2.407504030470782597e-01
2.411607221547852342e-01
2.347274825231332185e-01
2.314441327570859464e-01
2.263219306019904897e-01
2.190090819157500257e-01
2.224141350925200600e-01
2.301697784223927234e-01
2.445682510305131896e-01
2.647069917144508899e-01
2.695803960903385144e-01
2.860968410005955698e-01
3.011561006231881499e-01
2.846530837894348243e-01
2.738319561000041591e-01
2.568497553048592619e-01
2.288574343470229089e-01
2.122784496693834178e-01
2.170141359062673914e-01
2.002593649054107416e-01
1.786960613325358493e-01
1.816587291121797565e-01
1.746274283872925048e-01
1.798135030893611985e-01
1.804076321595841637e-01
1.680227496455484748e-01
1.949873938854809474e-01
2.065192945061845864e-01
2.084672027734059130e-01
2.192722124874350031e-01
2.219589360513563037e-01
2.431674629278698097e-01
2.415229859903642584e-01
2.472589726344171235e-01
2.378603346230223903e-01
2.417105253831270395e-01
2.622667534000374112e-01
2.544200855926172511e-01
2.520487935914298427e-01
2.567942638859561644e-01
2.619516223816389378e-01
2.648559613510140798e-01
2.468583841638760656e-01
2.380092159719364719e-01
2.490326096539600409e-01
2.473425513945182175e-01
2.531214402017026299e-01
2.514743998021617966e-01
2.439371695931044637e-01
2.450086054128978730e-01
2.453364635791016046e-01
2.436040623302453967e-01
2.542646451801360841e-01
2.795568618354809520e-01
3.010595852859734856e-01
2.956368162324382598e-01
2.949970996440493543e-01
2.859931430709811151e-01
2.867741455519338678e-01
3.032650867985360876e-01
3.170628212111088473e-01
3.212876538917760483e-01
3.212433025837408973e-01
3.231813224592066658e-01
3.294483548014960350e-01
3.189771859549552224e-01
3.040286334399593948e-01
2.894848152283212017e-01
2.923580992835543291e-01
3.109176166427496946e-01
3.038221902238629202e-01
2.977253026132448133e-01
2.753402269245311396e-01
2.469195310631026041e-01
2.583639979504538386e-01
2.747497406830187727e-01
2.878473772801464214e-01
2.931828073295822401e-01
2.813823955858513748e-01
2.702578926549955574e-01
2.652647613356551859e-01
2.393847229377686070e-01
2.140300779315602586e-01
1.984768413961752465e-01
2.029034950547181915e-01
2.219776221832605867e-01
2.193791333051540449e-01
2.121788910461500643e-01
1.939513421749561872e-01
1.949323818177379763e-01
1.819076693756288554e-01
1.738379550745490221e-01
1.657060655854844800e-01
1.519718954619561357e-01
1.544778591390268407e-01
1.505944960720195236e-01
1.322961993380686319e-01
1.188183337945900309e-01
1.126685863165355628e-01
9.960258850045920764e-02
9.269890873542617482e-02
7.691294570700696331e-02
4.509577954487414830e-02
3.044593658168800662e-02
2.286169712379941543e-02
2.933004815344594438e-02
2.992689424280485164e-02
1.783187062538010847e-02
-1.367787878241651794e-03
6.466846652777689594e-03
2.017636968998687969e-02
2.717988215548192837e-02
1.869288389505410763e-02
2.540098058445451959e-02
2.914560727946161403e-02
3.161676553410965908e-03
-4.256743535345480084e-04
1.741203604359215992e-02
-1.345154319092151454e-03
-2.709131807487639293e-02
-4.684101040621883871e-02
-5.204508693394543917e-02
-6.186037932154876684e-02
-6.701264040338016093e-02
-6.188195318062975070e-02
-6.354874260802889641e-02
-6.825002875453467510e-02
-6.290566889195542410e-02
-5.335118253763477397e-02
-3.709348939355149033e-02
-1.875163785303394712e-02
1.464223190252674466e-03
2.265382453673688012e-02
2.335286510754862321e-02
1.743689326006836460e-02
1.809259407191415262e-03
-7.222067046582273178e-03
-6.611788312495791783e-03
-2.362603546970595131e-03
2.550564004118864060e-03
9.013471432018964336e-03
9.295034939757820802e-03
-4.072276606008930211e-03
-1.826369802149890864e-02
-2.382394643968117898e-02
-1.771682463153308879e-02
-3.180721562947017023e-02
-5.698891143002744741e-02
-7.489167603520992256e-02
-7.423215796886645235e-02
-8.338784661795266284e-02
-9.039391925985752752e-02
-9.932050612509625565e-02
-1.109367495748312532e-01
-1.386955638194231066e-01
-1.811886134867145004e-01
-1.943239759819825330e-01
-1.791731480717064229e-01
-1.698707839786269824e-01
-1.779052107476749855e-01
-1.989986932250835949e-01
-2.007570865344244504e-01
-1.908151217362371033e-01
-1.767687552109780680e-01
-1.733465053981978476e-01
-1.700342789036108637e-01
-1.677255283753532056e-01
-1.699316742447222472e-01
-1.703756309859007223e-01
-1.302748932091931655e-01
-1.059957422583032438e-01
-9.371052405642887884e-02
-8.937816247441225659e-02
-8.138013398211527138e-02
-6.301839837997710858e-02
-2.857041867170141691e-02
-9.499746136213165632e-03
1.764236142370513918e-02
5.503535557385182825e-02
7.182116230003773860e-02
1.163490483836723266e-01
1.845984344769412977e-01
2.407860364836881817e-01
2.896424831183653237e-01
3.525804346362793606e-01
4.199079655333058936e-01
5.028053839946041714e-01
5.936483326807944216e-01
6.782683532823464700e-01
7.673264540531595790e-01
8.683653558315267418e-01
9.533272297486605762e-01
1.030306077589163483e+00
1.070750940621509439e+00
1.077219703287483066e+00
1.083204176794096085e+00
1.069529542636527886e+00
1.031789209963000387e+00
9.921680193204782672e-01
9.398964844856037004e-01
8.635664554151653016e-01
7.632774324698997637e-01
6.471238018906430023e-01
5.317915955923252502e-01
4.265749191067488288e-01
3.336206830031998027e-01
2.241729747724104105e-01
1.025263189809551001e-01
-1.329049427042829773e-02
-1.324136859495734508e-01
-2.311989520573682066e-01
-2.817539738264760452e-01
-3.083544866436405130e-01
-3.237194289829605776e-01
-3.329390876016182221e-01
-3.384231008824207798e-01
-3.517206471477443697e-01
-3.574085611500091852e-01
-3.492315259787953652e-01
-3.544723596668420407e-01
-3.444889090700079537e-01
-3.308617038917358033e-01
-3.092158431030155308e-01
-2.747652516634930819e-01
-2.422107596221033943e-01
-2.253440278773470584e-01
-2.202918212948045129e-01
-1.983098002132444582e-01
-1.775197120244136617e-01
-1.588778908937359957e-01
-1.551626080301408417e-01
-1.668375869650547405e-01
-1.701395540206681600e-01
-1.736963477666892131e-01
-1.670749347159752041e-01
-1.608468636804391838e-01
-1.667670179202944414e-01
-1.818954284756936768e-01
-1.802431526687725549e-01
-1.845625681717805444e-01
-1.784504976372754403e-01
-1.693889584086221423e-01
-1.486670933642734171e-01
-1.306908339103026728e-01
-1.212072316802087490e-01
-1.254398387979466789e-01
-1.235178123945982198e-01
-1.103248527480284180e-01
-9.636425097566528319e-02
-6.733250491040256025e-02
-4.413102810801580733e-02
-2.773917766332919393e-02
-2.318324669192414755e-02
-7.894806489655176521e-03
-8.287865606714390695e-03
-3.572319716487554891e-02
-5.024766334430801062e-02
-7.294685849737460315e-02
-7.784308062783740212e-02
-9.537027210297488455e-02
-1.126230930162933352e-01
-1.090583104042776308e-01
-1.077545388985937380e-01
-1.189537449995738821e-01
-1.159596873202222017e-01
-1.231137815107035127e-01
-1.355483347414107587e-01
-1.358037691186944618e-01
-1.215959912403301452e-01
-1.179632737712534296e-01
-1.179518613635842789e-01
-1.105479187172059286e-01
-1.051106123080582239e-01
-9.173427814077597664e-02
-8.900651907063548973e-02
-1.002003956181659328e-01
-1.018039166482595376e-01
-1.074961809427028153e-01
-1.114798779459233585e-01
-1.164655814715745419e-01
-1.214805254931636269e-01
-1.253685975465694824e-01
-1.310791006526421665e-01
-1.289674047631636788e-01
-1.166321270970457069e-01
-1.023919637392854964e-01
-7.748787550388366863e-02
-6.449240586752613691e-02
-6.536288613355513422e-02
-5.734653951626328405e-02
-6.517503742530816879e-02
-8.168363190849825539e-02
-9.624489721330636849e-02
-9.470996537287550143e-02
-8.347114398665290980e-02
-7.000407472629839589e-02
-6.286555271897044384e-02
-3.981135269071672811e-02
-3.517049886182765928e-02
-4.785060660279175787e-02
-5.282729314355336103e-02
-7.710413518008704670e-02
-9.935523613707257506e-02
-9.781282077769407057e-02
-9.368984943718447478e-02
-9.109541892799542795e-02
-8.966896283534959988e-02
-9.595222057748992173e-02
-1.038471252346003376e-01
-9.852848995716105562e-02
-8.893921740664285924e-02
-8.030628431317636540e-02
-8.605944623752707912e-02
-9.197131801379530847e-02
-9.287028316189895050e-02
-9.229592916534996860e-02
-7.864584520020373448e-02
-7.345740475851376960e-02
-6.312171652913350917e-02
-5.803545420156604878e-02
-5.702470706308535725e-02
-5.915620672345726916e-02
-6.298181039322175989e-02
-7.870643281018936677e-02
-8.750987187469878859e-02
-7.741904778347573346e-02
-7.198084524929103389e-02
-6.990254284687848207e-02
-6.103615124378926338e-02
-4.268108362374199022e-02
-3.199478119068843024e-02
-1.016950528583897631e-02
1.362506901900558884e-03
-3.317972351851264465e-03
-1.920931651397295506e-02
-2.203874923956820886e-02
-1.638446507028966728e-02
-2.739753611033849540e-02
-4.504442359657846728e-02
-7.592973171473657579e-02
-7.885712946663715750e-02
-7.267073504750053148e-02
-7.201574837572403964e-02
-7.918373834129023570e-02
-7.159780428340548064e-02
-6.966261252869770937e-02
-6.067995459639786981e-02
-6.738457534625852396e-02
-7.554110651639299456e-02
-7.419943333790875173e-02
-6.436930657173470238e-02
-5.499970072745355432e-02
-5.157289830220553734e-02
-4.806757070356389161e-02
-4.728018047067483048e-02
-4.092215029559272133e-02
-4.194149383561484451e-02
-4.794238446553222149e-02
-4.518508009721303176e-02
-4.406546522531688131e-02
-3.539180568014480693e-02
-2.606647484747433297e-02
-2.663654207983645258e-02
-2.322378361535268332e-02
-2.088655218952828810e-02
-2.388296414397770434e-02
-1.969363164861390875e-02
-1.875447406583001519e-02
-3.082180019841213731e-02
-2.518592887906507399e-02
-1.480310825788579664e-02
-1.673118102342151248e-02
-1.627666423000210735e-02
-2.732688473814160954e-02
-4.099630897421829845e-02
-3.311905052131779853e-02
-2.845707218389119386e-02
-4.063673252000969682e-02
-4.795139971942676688e-02
-4.927200323057547710e-02
-5.548596948616783819e-02
-6.571301275720224655e-02
-7.436603510541506257e-02
-6.325749898317978293e-02
-6.543443390067527066e-02
-7.322046380190144754e-02
-7.396442598725003204e-02
-6.177212947740687299e-02
-5.025684962141947765e-02
-2.850232313771673340e-02
-1.378113926926973973e-02
-3.394204339055682026e-03
5.392896327282801008e-03
6.526305031230642678e-03
4.954462459452175713e-03
5.000404177828397800e-03
1.365888345173952440e-02
1.742418571905724259e-02
5.953622258253934291e-03
6.551757687932873060e-04
2.527587476956753149e-03
-3.277565329569177149e-03
-1.532066234213092307e-02
3.335967433404636411e-04
1.849553120247444948e-02
3.511950450298029908e-02
1.900211669119917721e-02
-1.209423007834217051e-02
-4.804051159543507032e-02
-3.820230846480880682e-02
-1.555149998745114330e-02
-1.160271750265813931e-03
-4.279346299895854522e-03
-2.699929901885086622e-02
-3.215930592472358851e-02
-3.567413905228348364e-02
-4.234103544397400942e-02
-5.360063113283841663e-02
-5.963922729816519691e-02
-7.544109795902498306e-02
-8.799901854502473197e-02
-1.002984466140801750e-01
-9.911245537823017149e-02
-9.048029528459695936e-02
-9.950530388529339743e-02
-9.055494024592923574e-02
-8.676005498269605265e-02
-8.634364871095073779e-02
-7.487812119954363743e-02
-6.162984788369457040e-02
-4.344158170020919613e-02
-3.739201806582755777e-02
-2.887322935412318242e-02
-2.801698763635354986e-02
-3.347869094945901680e-02
-4.085347992702249853e-02
-5.107940340634906096e-02
-5.007714931566118605e-02
-5.216018954236880528e-02
-5.628933143786802457e-02
-6.136086966462219600e-02
-7.823677160411382503e-02
-7.743403834120678175e-02
-8.073932807713339599e-02
-8.550236826955692759e-02
-7.991376937959444871e-02
-9.535969221422027631e-02
-1.140906685405167764e-01
-1.375252706738411268e-01
-1.310456341011973502e-01
-1.196678426984062182e-01
-1.044241407534553107e-01
-9.887356083372841886e-02
-1.093886053507930473e-01
-1.309076301409222709e-01
-1.310974777159735205e-01
-1.342729632878712498e-01
-1.260535855614335343e-01
-1.285529727479138851e-01
-1.489742307111192043e-01
-1.585519680772512763e-01
-1.680829765411281929e-01
-1.678506832485386902e-01
-1.674804411751101563e-01
-1.642204484825928457e-01
-1.785128547672407417e-01
-1.895250206560315509e-01
-1.837788426845246015e-01
-1.750657145387196356e-01
-1.646192828631803384e-01
-1.414928535154960643e-01
-1.308092558327726973e-01
-1.341527428782973153e-01
-1.535873860398435931e-01
-1.677655104220254212e-01
-1.765299557021851595e-01
-1.765010674409596969e-01
-1.812311936864322015e-01
-1.770214641207530915e-01
-1.825835743019026125e-01
-1.848787894231569418e-01
-1.985779465263513566e-01
-2.103336691437520389e-01
-2.139998782231425090e-01
-2.107241895318589520e-01
-1.927691818479848884e-01
-1.874150229000473844e-01
-1.970970662683165509e-01
-1.997323008955214918e-01
-2.047304488722977156e-01
-2.012021360495300781e-01
-1.942003597552504346e-01
-1.853306017894944258e-01
-1.687710388732898137e-01
-1.792808489268997163e-01
-1.846262885506219642e-01
-1.932875820248686760e-01
-1.904844095107180724e-01
-1.742969101338991134e-01
-1.714821624143289258e-01
-1.610896031028721254e-01
-1.501016587921061018e-01
-1.531049444614459021e-01
-1.559311140327165335e-01
-1.597932043274949421e-01
-1.533576587824079240e-01
-1.400333005110279139e-01
-1.504432211222488935e-01
-1.463038909080546235e-01
-1.407965601423212254e-01
-1.470271144622627146e-01
-1.499091753215268941e-01
-1.468840153963300588e-01
-1.357511186328294872e-01
-1.231263199451098772e-01
-1.324784156514428046e-01
-1.284757779813472944e-01
-1.369330038324918508e-01
-1.440605008287121347e-01
-1.565119264702161117e-01
-1.655927296378468527e-01
-1.744204357355643720e-01
-1.815063880752394165e-01
-1.807788930074346878e-01
-1.774351367086877962e-01
-1.677840072759998469e-01
-1.593605123469743756e-01
-1.586544384581707323e-01
-1.554284244189406694e-01
-1.507132093852630861e-01
-1.452403296028417223e-01
-1.317936391115305805e-01
-1.317208350347259804e-01
-1.310955461726623916e-01
-1.367288193064158941e-01
-1.444590512150337180e-01
-1.468452190781222577e-01
-1.295054230362236436e-01
-1.269422072192742390e-01
-1.339331105410846989e-01
-1.418201733524196984e-01
-1.496246962161747185e-01
-1.522712176335921652e-01
-1.719981540036318313e-01
-1.859068616081638037e-01
-1.984607163316931266e-01
-2.207621741553589256e-01
-2.230069711230325546e-01
-2.226239511964895890e-01
-2.003479692227577713e-01
-1.847639946412834577e-01
-1.728225923462675673e-01
-1.695133295161257991e-01
-1.605683851162058029e-01
-1.567261098528705821e-01
-1.619056528256821170e-01
-1.649675835792829282e-01
-1.638746040304946694e-01
-1.657405630189668355e-01
-1.778049760093857734e-01
-1.914430834817007210e-01
-1.939095581908829302e-01
-2.001252842428339895e-01
-1.962160309926722079e-01
-1.834047652123836636e-01
-1.734657777832045444e-01
-1.695259418477333968e-01
-1.814500941740970763e-01
-1.824687351246245259e-01
-1.652052434030144012e-01
-1.621161805715147231e-01
-1.819821723515598344e-01
-1.980901962468319955e-01
-2.163531020238186608e-01
-2.237540762141552453e-01
-2.244593571933447551e-01
-2.354822104444552755e-01
-2.548914122199937293e-01
-2.734387263520815514e-01
-2.905637917269860426e-01
-2.895276166859529487e-01
-2.855340093764706100e-01
-2.852830909795612824e-01
-2.908248015459692914e-01
-2.911403963729026212e-01
-2.859312472442700481e-01
-2.740649582529443018e-01
-2.736705980688289852e-01
-2.738974527226524791e-01
-2.555147568040617712e-01
-2.430576565999166272e-01
-2.132627774535139908e-01
-1.996475633361257662e-01
-1.922657490599378738e-01
-1.982815888404510507e-01
-2.259094970544394398e-01
-2.481716173927557834e-01
-2.593250813985878422e-01
-2.622539213894473642e-01
-2.685061017836615771e-01
-2.651924963632051879e-01
-2.871976724171466655e-01
-3.048678792783556246e-01
-3.080794273737414435e-01
-3.058226900614147148e-01
-2.979302606865958936e-01
-2.710437430017626492e-01
-2.670926598983233702e-01
-2.832995679579155546e-01
-2.883031963725617985e-01
-2.909123203242388045e-01
-2.802176843890915592e-01
-2.696537518743341577e-01
-2.535990209230835069e-01
-2.473246147646356863e-01
-2.349833202611770755e-01
-2.297741185595023605e-01
-2.256860985871815273e-01
-2.256612666185606741e-01
-2.248416907469003856e-01
-2.140225903375029270e-01
-2.117673502255223994e-01
-2.166077728260427382e-01
-2.064609789011785101e-01
-1.981965198249898419e-01
-1.995668074140227732e-01
-1.933691999323727817e-01
-1.976163161998215345e-01
-1.938845316833839871e-01
-2.073130978314114414e-01
-2.031957271054756209e-01
-1.908916024729105931e-01
-1.918934740476082867e-01
-2.044487366627791569e-01
-2.236685411324324801e-01
-2.216799892391255189e-01
-2.154387983788554062e-01
-2.105894387818380564e-01
-2.134103435676306670e-01
-2.266604181131098295e-01
-2.292343457754079383e-01
-2.201092909750206605e-01
-2.215184010951119220e-01
-2.270479519885729436e-01
-2.295568805595676887e-01
-2.328197808181230732e-01
-2.240071332644162638e-01
-2.097081575023094502e-01
-1.997868177366740883e-01
-2.036875648588620802e-01
-1.946842908929984350e-01
-1.738124509014811470e-01
-1.467297127163455506e-01
-1.318840541110838094e-01
-1.443465561793346175e-01
-1.720351489874756556e-01
-1.838990765700599384e-01
-1.972541896508990811e-01
-2.138247363550492275e-01
-2.203248704662645885e-01
-2.355800947318752447e-01
-2.504950022628862349e-01
-2.593716854839143715e-01
-2.681029230877446379e-01
-2.736008336927013285e-01
-2.761674979574718081e-01
-2.869354169749503414e-01
-3.082214273144454619e-01
-3.459851248140934921e-01
-3.737609289261687451e-01
-3.807056247324618337e-01
-3.760011728797235664e-01
-3.811774018065056668e-01
-4.106798588654749782e-01
-4.314206521097341263e-01
-4.309371927918982381e-01
-4.258998220031710580e-01
-4.179560912708860099e-01
-4.171929264132122617e-01
-4.139043752640693130e-01
-4.191646848732109576e-01
-4.360166014973496651e-01
-4.390977928688756804e-01
-4.423111283701359753e-01
-4.387315010451747765e-01
-4.406381199404994509e-01
-4.392644990343818057e-01
-4.410156149326805997e-01
-4.356311146758175545e-01
-4.123432958844133744e-01
-3.961827660389467543e-01
-3.882621036471146092e-01
-3.862028003186013247e-01
-3.800313605522876448e-01
-3.846791192333119946e-01
-3.837328154364209043e-01
-3.781841497039574729e-01
-3.816097339748277806e-01
-3.843894420067085482e-01
-3.972368511382782241e-01
-4.071438149474367885e-01
-4.131155598160697884e-01
-4.137765219919975479e-01
-4.189338057153489947e-01
-4.215397079661908908e-01
-4.214260775873525100e-01
-4.258476481756812704e-01
-4.333901740684367176e-01
-4.180164697305936428e-01
-4.090883190425680382e-01
-4.034963510193110281e-01
-4.063557256969375642e-01
-4.035903115024710441e-01
-4.096619338458211135e-01
-4.158495625994007572e-01
-4.337736204900568548e-01
-4.440726654171062160e-01
-4.403987300351396295e-01
-4.565468865937884480e-01
-4.869600095844391907e-01
-5.026692002419672622e-01
-5.181444658780717250e-01
-5.313333623978314657e-01
-5.556174253194148260e-01
-5.755415321673376106e-01
-5.750958243140201764e-01
-5.653750058144274560e-01
-5.807404274140327560e-01
-5.751599353859468966e-01
-5.460988128877329872e-01
-5.186827361096603140e-01
-5.021908336307746579e-01
-5.104422232551455441e-01
-5.259028579755475885e-01
-5.399587245960236759e-01
-5.370583713540055815e-01
-5.224031760836481686e-01
-5.061409061883448413e-01
-4.990653178549215863e-01
-5.001562450972537599e-01
-4.885210417437303998e-01
-4.628911115221936434e-01
-4.614892794081336680e-01
-4.535897940594908473e-01
-4.434449644313590566e-01
-4.064377128177326659e-01
-3.810756277847092699e-01
-3.410650597204987755e-01
-3.077235340658980300e-01
-2.739229678954527847e-01
-2.204953659385628928e-01
-1.606825621629496270e-01
-1.003469074646882592e-01
-3.822161600095215495e-02
1.405975988342751670e-02
9.168256223140731909e-02
1.889654641591992090e-01
2.716353335541618064e-01
3.325946554295431956e-01
4.006863959219009175e-01
4.848279500308227408e-01
5.781711951250755321e-01
6.385126865147442432e-01
6.687049784289043064e-01
6.645286561162448979e-01
6.788625500362087672e-01
6.773811909141953524e-01
6.305321883806522809e-01
5.853078138566782940e-01
5.413307409147656291e-01
4.617303986832691498e-01
3.851773033671067048e-01
3.016494178792287206e-01
1.924557142661313669e-01
1.018654773585044304e-01
1.286446277519436715e-02
-8.014494736684664444e-02
-1.755282340929848195e-01
-3.005033374561072446e-01
-4.267182889595746431e-01
-5.375383207225864490e-01
-6.314917383657076000e-01
-6.903964855797627420e-01
-7.235590025205123066e-01
-7.312722825041878538e-01
-7.409920627520533154e-01
-7.270252735102706865e-01
-7.147493709310792642e-01
-7.010445903077165974e-01
-6.626077363214845084e-01
-6.402795818246753701e-01
-6.273785318407949507e-01
-6.293151267303183083e-01
-6.206848540800080638e-01
-6.089164247571058342e-01
-5.909684060829238916e-01
-5.723234933344402142e-01
-5.635825615291529811e-01
-5.715407160766987626e-01
-5.875108513609490490e-01
-5.911285985151730760e-01
-5.895438176117943074e-01
-5.811381007067742965e-01
-5.793199649579130472e-01
-5.683081806970617933e-01
-5.676473654720801676e-01
-5.758682319081457335e-01
-5.704399876183930962e-01
-5.560526234390296141e-01
-5.412163847501598735e-01
-5.224156517234498365e-01
-5.205505079297637616e-01
-5.208479092602433802e-01
-5.174529623970852699e-01
-5.096183550589408195e-01
-5.020741341951966419e-01
-4.925238399204121542e-01
-4.753406382058589785e-01
-4.861307674376343924e-01
-4.767139727885604250e-01
-4.625972007320804380e-01
-4.632129838807403921e-01
-4.775279596962515583e-01
-4.953444320834971548e-01
-5.056618757954390864e-01
-5.203374696678325639e-01
-5.100726204554644205e-01
-5.083650808730918458e-01
-4.997430439909099076e-01
-5.005804500275685687e-01
-5.152471557084201681e-01
-5.085238256559792003e-01
-4.937350402575038100e-01
-4.931344744868171870e-01
-4.938571938129378558e-01
-4.998408624348508744e-01
-4.963225523747270551e-01
-4.812152437366794544e-01
-4.731263953631168473e-01
-4.794253420079376271e-01
-4.872379373026548555e-01
-5.076710526149915692e-01
-5.191583053836374972e-01
-5.278272714446905489e-01
-5.188061263812291379e-01
-5.202522192224688924e-01
-5.191888891062867994e-01
-5.216332829952537997e-01
-5.048639470293172504e-01
-4.857319971303114547e-01
-4.812622142286158700e-01
-4.883788487493553321e-01
-5.004707478855293656e-01
-5.075046077257896471e-01
-5.044013722528901678e-01
-4.992522106147532224e-01
-4.967530035383764808e-01
-5.109691044610270572e-01
-5.322186896291296598e-01
-5.475655012539840660e-01
-5.442248889867660200e-01
-5.370629426873505530e-01
-5.327078665813893554e-01
-5.291591655857680321e-01
-5.315204331176707209e-01
-5.199221497507366951e-01
-5.135462409174293974e-01
-5.105993410827864842e-01
-5.203411291622167534e-01
-5.241493050829411082e-01
-5.228594553001293388e-01
-5.053372161517846184e-01
-5.007232037465536578e-01
-4.991040958468527799e-01
-4.875754558170249386e-01
-4.861878162852080743e-01
-5.002637158377702953e-01
-5.076520016291274917e-01
-5.147441249724871160e-01
-5.244411712374089651e-01
-5.274899539457146291e-01
-5.387736565715185444e-01
-5.370016767398921864e-01
-5.437095719873838995e-01
-5.478014712397256680e-01
-5.491861978444751990e-01
-5.510026195080859335e-01
-5.515285467922326212e-01
-5.443828973701362317e-01
-5.385533402224494948e-01
-5.310395044253843899e-01
-5.309794027053245102e-01
-5.200396904866952941e-01
-5.165697643561770747e-01
-5.158716264097602533e-01
-5.179793211420677945e-01
-5.160114314076379438e-01
-5.117791009306998928e-01
-5.117782187955258744e-01
-5.109381931609597860e-01
-5.240224128917538859e-01
-5.295591256762436361e-01
-5.298462619426200781e-01
-5.264169480774401055e-01
-5.120911496388440565e-01
-5.266880806720874997e-01
-5.252520718351575413e-01
-5.376936609361856467e-01
-5.176238031778990223e-01
-5.065079919074644277e-01
-4.976296401019878468e-01
-4.885517106205358728e-01
-4.850438949409360267e-01
-4.854274348648577875e-01
-4.845911078241398329e-01
-4.867783736381241511e-01
-4.932345293442763068e-01
-4.896968480753000619e-01
-4.863041013922350664e-01
-4.977810804715736004e-01
-4.989254997807790470e-01
-5.006915112013288205e-01
-4.853024535284549135e-01
-4.701656604388239069e-01
-4.561903596919378301e-01
-4.510318543446171224e-01
-4.576147102229726760e-01
-4.742186277086238855e-01
-4.744968361735042439e-01
-4.876341909412323372e-01
-4.868668476678886803e-01
-4.695090973114490196e-01
-4.773967723818595688e-01
-4.769829102887871985e-01
-4.792825067550244844e-01
-4.804898918336696911e-01
-4.818432396439020771e-01
-4.772241585190717394e-01
-4.848871311003067341e-01
-4.876508731939516172e-01
-4.886138767744850897e-01
-4.943174561295154978e-01
-4.910115553899488949e-01
-4.842241370918192178e-01
-4.707248072052793164e-01
-4.580899681689637459e-01
-4.533002386846887721e-01
-4.505365439359356738e-01
-4.354978967515740207e-01
-4.333473124402479337e-01
-4.330041553040877012e-01
-4.278423091360770703e-01
-4.357440413522386535e-01
-4.351620418926206990e-01
-4.333702411170800572e-01
-4.262797402769941124e-01
-4.310313050434195770e-01
-4.214932004561083301e-01
-4.204120489205046551e-01
-4.344184832207782510e-01
-4.385090372246210899e-01
-4.593814758681405430e-01
-4.791593649167320557e-01
-4.875772381850098647e-01
-4.655052579457445439e-01
-4.448211536219632833e-01
-4.563420918192434006e-01
-4.663580489628520453e-01
-4.642353045973740544e-01
-4.548346925696183374e-01
-4.353617694470841570e-01
-4.311243914265402988e-01
-4.398576045216816555e-01
-4.358193731626960887e-01
-4.420721147547068686e-01
-4.387187768476797367e-01
-4.466235295138907824e-01
-4.554649058514615989e-01
-4.680796667280461287e-01
-4.753793874925065222e-01
-4.845189565129796039e-01
-4.985108208943925812e-01
-5.037527396547419878e-01
-5.182011906710598526e-01
-5.028547622654682137e-01
-4.895808930394254244e-01
-4.974401729461794819e-01
-5.087156096741189959e-01
-4.926091443009898430e-01
-4.821786846743357224e-01
-4.938862172740817180e-01
-4.965932502201199639e-01
-4.916460843656049184e-01
-4.932011662506540772e-01
-5.043425771041123440e-01
-4.930941229726585884e-01
-4.843821239554110258e-01
-4.761606989228590603e-01
-4.871203989393725342e-01
-4.923109682531033315e-01
-4.911355770791466790e-01
-4.907047619119380144e-01
-4.975164193692312442e-01
-5.016085154433773674e-01
-4.961570848124260968e-01
-4.933985694540592437e-01
-4.843554242511997621e-01
-4.912481068869414269e-01
-4.955225664993924140e-01
-4.859226444532656619e-01
-4.870138506974725501e-01
-4.832958717800604487e-01
-4.678341205463149577e-01
-4.705930523425023160e-01
-4.827505654021731485e-01
-5.001711911909344499e-01
-5.077643680258795422e-01
-5.235966717591391539e-01
-5.263245972222418967e-01
-5.191650662999858223e-01
-5.257352172801154078e-01
-5.452412976438071324e-01
-5.562257029991598545e-01
-5.609893277023730862e-01
-5.564549644138736539e-01
-5.626631563526880431e-01
-5.624851878763367230e-01
-5.497355839342639161e-01
-5.497063211325288190e-01
-5.513066388902326809e-01
-5.391511918079334720e-01
-5.142067218285336638e-01
-5.017785217047939783e-01
-4.956472746596072287e-01
-4.988919862267064964e-01
-4.914877263208880520e-01
-4.943137628077142742e-01
-5.134679982785155250e-01
-5.279263952377409863e-01
-5.569535448976488112e-01
-5.558844396646539510e-01
-5.600554861920211680e-01
-5.560770632956948401e-01
-5.578479353623997383e-01
-5.622753160750263435e-01
-5.695096985849722460e-01
-5.745381589287683610e-01
-5.831380346193614228e-01
-5.805450091766631848e-01
-5.793575286159701188e-01
-5.881333967087122305e-01
-5.835924707492738950e-01
-5.670484295831159649e-01
-5.447205180488945420e-01
-5.275480737577735724e-01
-5.196305249872332777e-01
-5.181598569552009481e-01
-5.131207136782898193e-01
-5.272413316030963859e-01
-5.480060880684335389e-01
-5.550034597221816801e-01
-5.553966672347041555e-01
-5.441626982371826626e-01
-5.269213985258568433e-01
-5.123979751738793054e-01
-4.922901669266538383e-01
-4.973422655036954798e-01
-5.134342898635434471e-01
-5.097668195904825339e-01
-4.991632756814600169e-01
-5.024266328618293143e-01
-5.164521397401500291e-01
-5.187686483831623896e-01
-5.396367466637930210e-01
-5.542451923237803335e-01
-5.626416021523328315e-01
-5.740157287740756953e-01
-5.665115989596598567e-01
-5.666917290282833530e-01
-5.738183174618560756e-01
-5.790451811630733525e-01
-6.054094239287278745e-01
-6.234686144214728332e-01
-6.229201798597124862e-01
-6.045705191857252414e-01
-5.841547058709407603e-01
-5.644204366835461339e-01
-5.551601745886223238e-01
-5.378244445571931376e-01
-5.253528728835861195e-01
-5.268661310427051880e-01
-5.314008740435113287e-01
-5.164399249187570096e-01
-5.042987797222848734e-01
-4.942359257407524797e-01
-4.864548852869347018e-01
-4.941885137165640818e-01
-4.874316543588197437e-01
-5.088504260421228276e-01
-5.132265120657966140e-01
-5.116784492630985781e-01
-5.073127939277803922e-01
-5.147386447253099462e-01
-5.354825353304570879e-01
-5.341717992041301599e-01
-5.343823816721391395e-01
-5.308985114026634200e-01
-5.298443453930903324e-01
-5.124407763353020506e-01
-4.996612634697009114e-01
-5.126773998361915385e-01
-5.126318781608996122e-01
-5.331503065652642981e-01
-5.447111917738931552e-01
-5.505193759936515274e-01
-5.508652923955362768e-01
-5.384912249174822474e-01
-5.353320515945073632e-01
-5.200657276745800361e-01
-4.998414984658742788e-01
-5.055514124767608308e-01
-5.199251685961027158e-01
-5.335250198540318900e-01
-5.439330941762864358e-01
-5.482765845214150335e-01
-5.508093752047471536e-01
-5.503429001750563820e-01
-5.488657040636553130e-01
-5.439198695424534158e-01
-5.565158412679315214e-01
-5.475524099899514718e-01
-5.295420088193736330e-01
-5.321533259270079252e-01
-5.377245781754295129e-01
-5.535173607470513790e-01
-5.516391708051875398e-01
-5.531380579485356552e-01
-5.517914597383062336e-01
-5.580016149156870053e-01
-5.745514895172457726e-01
-5.841963139631587421e-01
-5.898593006522138138e-01
-5.744043772244311619e-01
-5.637164843447991514e-01
-5.587854294889322837e-01
-5.556407366138318427e-01
-5.572437898781451571e-01
-5.619479294974771832e-01
-5.592341430712082229e-01
-5.341390812957590439e-01
-5.236729520770494473e-01
-5.249124733017520583e-01
-5.392814960807321700e-01
-5.368053561341168400e-01
-5.328436962088567430e-01
-5.232326079192590740e-01
-5.208854821422301828e-01
-5.316468029276918417e-01
-5.458641965566176646e-01
-5.625689265041007303e-01
-5.885644904287333778e-01
-6.028877167299482309e-01
-5.999814344640392871e-01
-6.017820920183617472e-01
-6.014526650170796129e-01
-6.069456190378150762e-01
-5.974505150892822636e-01
-5.990943619755813021e-01
-5.895895337018353111e-01
-5.899652554331205057e-01
-5.806595053931131734e-01
-5.626894201376986260e-01
-5.457286818755995306e-01
-5.280501210612855711e-01
-5.284990126332448357e-01
-5.549790711022014600e-01
-5.643651981239654614e-01
-5.427078416119361925e-01
-5.444422358985026023e-01
-5.563732840938870883e-01
-5.739867195025274427e-01
-5.603642935490521504e-01
-5.618669120698976949e-01
-5.603675017893656740e-01
-5.606107483782057921e-01
-5.668467571395275906e-01
-5.820734371674379792e-01
-6.043340705847846106e-01
-6.111558941226262753e-01
-6.113808582105646483e-01
-5.939978137565680161e-01
-5.801681155236049214e-01
-5.834662565667741996e-01
-5.901360155242580952e-01
-5.950555972950268835e-01
-5.982293396057694057e-01
-6.004764448646781050e-01
-5.997016425130876627e-01
-6.182915678013768401e-01
-6.115392275050116622e-01
-6.061942186881893457e-01
-5.971290125081166744e-01
-5.908338392368077674e-01
-5.811770022888893550e-01
-5.852130978085838819e-01
-5.750847514524517479e-01
-5.619348531410573999e-01
-5.596336051822725643e-01
-5.297197421518260452e-01
-5.214217622133915375e-01
-5.115707459081975106e-01
-5.013272382660284299e-01
-5.044617400006583541e-01
-5.071098329233199031e-01
-5.200473294680348912e-01
-5.151547364509916349e-01
-5.095253135725203997e-01
-5.046799895112787926e-01
-5.110118967188072014e-01
-5.113084599939228259e-01
-4.928441687317912656e-01
-4.868219455609392732e-01
-5.037345316396770745e-01
-5.292792192692170605e-01
-5.284721366841664825e-01
-5.172893837684301444e-01
-4.949164760888967729e-01
-4.957119705145418553e-01
-4.812858929221393023e-01
-4.647202138870234478e-01
-4.629160040421092526e-01
-4.611809852283348943e-01
-4.608406660515415032e-01
-4.679259542695077823e-01
-4.613998903258005879e-01
-4.650942370915084334e-01
-4.676491403919526557e-01
-4.546578890245574489e-01
-4.564501671082242806e-01
-4.479631090132332738e-01
-4.445068752442592475e-01
-4.490479805297751259e-01
-4.400901992267930440e-01
-4.437263510834274505e-01
-4.372990721340856424e-01
-4.370168777837884488e-01
-4.300587644997271308e-01
-4.388697248359090253e-01
-4.288189634929296945e-01
-4.371657735882138462e-01
-4.247896673628632214e-01
-4.206744015650453750e-01
-4.301300901184986758e-01
-4.270875447700676619e-01
-4.299392424612065722e-01
-4.383652571326911440e-01
-4.612377315375059683e-01
-4.601200426128572163e-01
-4.655354371283806914e-01
-4.882494306528170069e-01
-5.075775521895662390e-01
-5.227149404602666749e-01
-5.483816238389848108e-01
-5.747686266643464714e-01
-5.750343980469472260e-01
-5.776523231917846113e-01
-5.900496840461276760e-01
-5.906246984097804908e-01
-5.768604452452454900e-01
-5.616027425713443488e-01
-5.576852106200225201e-01
-5.700033926987306820e-01
-5.755422002841766860e-01
-5.600168929172004706e-01
-5.623547979210155034e-01
-5.783359723489100990e-01
-5.808579546082406342e-01
-5.594915004083031995e-01
-5.646455711909874609e-01
-5.750324000014895853e-01
-5.856103100063827505e-01
-5.913479853997226643e-01
-5.992616278085873827e-01
-5.996072046582365811e-01
-6.100074367049695967e-01
-6.267876212001813885e-01
-6.370729693644738845e-01
-6.475131181402314917e-01
-6.357629129202372331e-01
-6.230361807311413092e-01
-6.140892857921653736e-01
-6.019654469293428400e-01
-5.919815979539984063e-01
-5.938304732974439837e-01
-6.102003419776537152e-01
-6.207266467838790103e-01
-6.221062165260694554e-01
-6.318128015751451887e-01
-6.360533923482963869e-01
-6.334279556877657757e-01
-6.352284404874523061e-01
-6.405902390713555938e-01
-6.520786394760277327e-01
-6.642180345691970356e-01
-6.542639223124081527e-01
-6.308470059870737723e-01
-6.258667862544088356e-01
-6.261533289906886512e-01
-6.133950405929952110e-01
-6.044593833590169440e-01
-6.081256766750353648e-01
-6.171204208099289046e-01
-6.323905663727050763e-01
-6.513622934391621877e-01
-6.645358037960513720e-01
-6.752000726493121441e-01
-6.953862583140858478e-01
-7.180975827170181791e-01
-7.412377019858278349e-01
-7.395373220529801728e-01
-7.280206015070146419e-01
-7.377803279363650546e-01
-7.477116571369232245e-01
-7.521480507068895038e-01
-7.525229328301048515e-01
-7.497507109335763698e-01
-7.559225475065800559e-01
-7.783634803624457366e-01
-7.875617259797619285e-01
-7.730486716925972779e-01
-7.522619120200622067e-01
-7.146781841073545083e-01
-7.016374218028951226e-01
-6.991906468388171536e-01
-7.056932869316635548e-01
-7.081925696376669688e-01
-6.745462161244087929e-01
-6.412143111812794727e-01
-6.136676321836767034e-01
-5.778230822630479047e-01
-5.279609620592453645e-01
-4.946887506805232593e-01
-4.485891943579204399e-01
-3.917206329634192463e-01
-3.216245768129313287e-01
-2.553642262623732062e-01
-1.892470325960068367e-01
-1.301772417776775326e-01
-4.102821802292860170e-02
5.587658091425226625e-02
1.548559274298153821e-01
2.423726059162865099e-01
3.409366200463941343e-01
4.165377069119621800e-01
5.025865092052419492e-01
5.640022694599954312e-01
5.650231213339615977e-01
5.570300568433775856e-01
5.387554017263951334e-01
5.164218782912495254e-01
4.799472037843708350e-01
4.310402645474527006e-01
3.593876603581016571e-01
2.829114236244516523e-01
1.961889272934236594e-01
8.632329861011958649e-02
-2.676506964816140893e-02
-1.224034383893366218e-01
-2.035223892709530358e-01
-3.006041886222938775e-01
-4.117123905399353578e-01
-5.343240365481071175e-01
-6.421402406173951638e-01
-7.093227414673313191e-01
-7.502171981830767500e-01
-7.920392893227108377e-01
-8.104327778749673694e-01
-8.059958061863961021e-01
-8.241019314997477530e-01
-8.070342184158064702e-01
-7.850536738699513961e-01
-7.725406005658379538e-01
-7.473542571169731197e-01
-7.391855499645374472e-01
-7.372581999392724406e-01
-7.382815639168789357e-01
-7.345600249440499274e-01
-7.132394766708790579e-01
-6.850235855418055353e-01
-6.559598364227728906e-01
-6.279030242142066287e-01
-6.103413220724008825e-01
-6.130020509349395352e-01
-6.219289992513327148e-01
-6.398205364038296317e-01
-6.658452780072707800e-01
-6.959713443117561127e-01
-6.791508790543286933e-01
-6.772878680485874270e-01
-6.885370555470331499e-01
-6.952126973031810264e-01
-6.994774318325642781e-01
-6.916233895839282164e-01
-6.892835025054507847e-01
-6.778017464059998831e-01
-6.494151848366267465e-01
-6.311809394722731614e-01
-6.220027704617858699e-01
-6.005480317526362688e-01
-5.808946971651244295e-01
-5.648062291476427799e-01
-5.501351889054604261e-01
-5.467242739413629149e-01
-5.569771919748690570e-01
-5.521036215213712683e-01
-5.480846082628995086e-01
-5.455834605579867880e-01
-5.341971227678588008e-01
-5.399532256662865626e-01
-5.450684860033274681e-01
-5.600280194173457016e-01
-5.710262822078804312e-01
-5.763499706517720700e-01
-5.898815321850383597e-01
-5.806395214185693376e-01
-5.764072862718065959e-01
-5.563771652551869895e-01
-5.507673485132296154e-01
-5.368311490225647908e-01
-5.440648475062035416e-01
-5.494597428718278609e-01
-5.462091542828964030e-01
-5.360279692786242833e-01
-5.250129516766897098e-01
-5.161130749101063842e-01
-5.093446892642451429e-01
-5.058398064448661469e-01
-4.958128351135748790e-01
-5.097739940580616747e-01
-5.189018653186213692e-01
-5.343265542179583827e-01
-5.588064009143705047e-01
-5.745982513691012539e-01
-5.793882209236853598e-01
-5.819894678388630727e-01
-5.741867170595162939e-01
-5.547135002068938059e-01
-5.540550239022914436e-01
-5.615672650853724690e-01
-5.700817570372648246e-01
-5.723914490990511528e-01
-5.615289359339734609e-01
-5.511397025721964660e-01
-5.473933144873481815e-01
-5.496267379331449821e-01
-5.503128726287901396e-01
-5.384001373284080794e-01
-5.197030549428898194e-01
-5.288427452830186670e-01
-5.370294505128707652e-01
-5.435482845582940703e-01
-5.552507910583155404e-01
-5.545412462012678789e-01
-5.351528291927126757e-01
-5.220547016766067250e-01
-5.309182105245608962e-01
-5.324899910297880012e-01
-5.326538811994030453e-01
-5.206002260458171271e-01
-5.093309550696885069e-01
-5.114943360328887412e-01
-5.043821920386459823e-01
-5.096831694561636539e-01
-5.176556481763543438e-01
-5.315795209853645398e-01
-5.397821824542585745e-01
-5.515893778194218555e-01
-5.488593853283152413e-01
-5.422595361557960292e-01
-5.426913364460924649e-01
-5.374043306018266852e-01
-5.452191915502823116e-01
-5.526982257962218537e-01
-5.575510264405166838e-01
-5.486031085123499462e-01
-5.335739742569327593e-01
-5.192775162071682216e-01
-5.155665515105767316e-01
-4.914930563206373892e-01
-4.841493010809736486e-01
-4.783216032545999918e-01
-4.671104141656420294e-01
-4.601501641634854756e-01
-4.598321165165187852e-01
-4.693510911087660498e-01
-4.810354847317172000e-01
-4.803942712404656312e-01
-4.812999275824161871e-01
-4.943947181447304051e-01
-5.067720392966160725e-01
-5.096762569292933032e-01
-5.102933861789933356e-01
-5.110483110619351566e-01
-5.053854775585150394e-01
-5.058365535277796754e-01
-5.200129488425324631e-01
-5.227528729551625952e-01
-5.159173210811520693e-01
-4.928773916787281828e-01
-4.865119624860023695e-01
-4.936995068208635540e-01
-4.872643163154665169e-01
-4.847729389783476117e-01
-4.966411200211854338e-01
-5.101819531119217155e-01
-5.094996712981262332e-01
-5.039075191671401610e-01
-4.835527816784803701e-01
-4.712427635881801247e-01
-4.702393827687891825e-01
-4.597335818645510441e-01
-4.707844931824742285e-01
-4.856930993226029059e-01
-4.982053505338850385e-01
-4.889593187520129280e-01
-4.938102046596548611e-01
-4.956749892895591647e-01
-4.924959063993378794e-01
-4.817104008391587811e-01
-4.761209590343353226e-01
-4.805546749130152895e-01
-4.637781140291636350e-01
-4.550941625701456772e-01
-4.487127121827095277e-01
-4.518291635074809243e-01
-4.526255779663912460e-01
-4.602890808304647696e-01
-4.527180100022293874e-01
-4.447615340385050464e-01
-4.514462502979941227e-01
-4.560744642238664381e-01
-4.698736806109768960e-01
-4.755033850848413013e-01
-4.707908842873130828e-01
-4.526543447043329116e-01
-4.288010447495635979e-01
-4.221738394746172296e-01
-4.108845336629631251e-01
-4.001924268382999750e-01
-3.907985454707034734e-01
-3.834797583592234882e-01
-3.911650863571680681e-01
-4.031613439558605627e-01
-4.055871355686478941e-01
-4.013459990519271936e-01
-3.903050011699963906e-01
-3.815297092781264054e-01
-3.652551629802160971e-01
-3.925772526951458730e-01
-4.186757259145943433e-01
-4.508126298954095446e-01
-4.641515735275293930e-01
-4.652652049564014458e-01
-4.559228339994395585e-01
-4.570293688541984256e-01
-4.606446545070828069e-01
-4.617286705303891292e-01
-4.622729489408250458e-01
-4.515615978275510645e-01
-4.502001957289369916e-01
-4.548675241425696458e-01
-4.542182978779402691e-01
-4.454973132436458871e-01
-4.427409543974856199e-01
-4.291831659738287175e-01
-4.168706115118848698e-01
-4.190517422979174178e-01
-4.059845626860571488e-01
-4.086084810314394855e-01
-4.141393690320520626e-01
-4.259301136904444229e-01
-4.352895631882036653e-01
-4.327221654509363358e-01
-4.320734453111619855e-01
-4.261796385476039895e-01
-4.188223079862564147e-01
-4.167097760964785236e-01
-4.097488081427032025e-01
-3.951049312141206027e-01
-3.813746404859210126e-01
-3.692434803311219205e-01
-3.634581092858403251e-01
-3.654603248609034627e-01
-3.694600406815176097e-01
-3.826424857844580307e-01
-3.773525278705555097e-01
-3.667863667013996354e-01
-3.731598088182073170e-01
-3.911632233087320998e-01
-3.960800665005133059e-01
-4.033040929720961287e-01
-4.159719107167261232e-01
-4.246931538910710402e-01
-4.315069379706719666e-01
-4.333617117422516873e-01
-4.299746780100199839e-01
-4.120639842807705122e-01
-4.054161147007532273e-01
-4.148501712240209582e-01
-4.331153908577312084e-01
-4.526775898061142223e-01
-4.585927946089553009e-01
-4.603018401518981784e-01
-4.640833655699694860e-01
-4.651558639278293161e-01
-4.677266486159085135e-01
-4.732513550546514347e-01
-4.681596997146095784e-01
-4.793626499643106609e-01
-4.859407812287646067e-01
-4.909486317663023791e-01
-5.014018719004827984e-01
-5.079964475192717543e-01
-5.044243499834802913e-01
-4.955553032478895448e-01
-4.889548377405825152e-01
-4.830947228568384655e-01
-4.837627894631340020e-01
-4.842491962387152071e-01
-4.812035531459163407e-01
-4.831868748100667244e-01
-4.791941971597502015e-01
-4.709576892874210996e-01
-4.690312171187583368e-01
-4.768977583080795668e-01
-4.831169165647366537e-01
-4.928759828915374452e-01
-4.963890243695319171e-01
-5.044761546558089726e-01
-5.162839216020324029e-01
-5.348024317682128492e-01
-5.508472959687529258e-01
-5.627652108129725939e-01
-5.642465173735453643e-01
-5.518749752594465097e-01
-5.454186036733205123e-01
-5.474177526870952493e-01
-5.474945531262024323e-01
-5.268134229163514703e-01
-5.064452937134737986e-01
-4.872980203128803867e-01
-4.783743572059471205e-01
-4.693775592641881156e-01
-4.707308884373979097e-01
-4.739077567118246681e-01
-4.632367899296768732e-01
-4.561847272798745800e-01
-4.431168962366911490e-01
-4.467202370359418806e-01
-4.581536862722287440e-01
-4.604584829310530703e-01
-4.645369330294986110e-01
-4.569432442612418876e-01
-4.433262807441075148e-01
-4.401859404800723130e-01
-4.310567634939178605e-01
-4.344929758041607970e-01
-4.601748538888857376e-01
-4.773420794936573675e-01
-4.867640300301623868e-01
-4.771405790165192951e-01
-4.613900296074218699e-01
-4.610972725430376173e-01
-4.667533623380332730e-01
-4.777631503219167963e-01
-4.786434058582768047e-01
-4.749119288742120748e-01
-4.569734282264468206e-01
-4.715662424961761801e-01
-4.739713535057684668e-01
-4.635286049530275010e-01
-4.473166693853988796e-01
-4.319188551194481640e-01
-4.308491308652430130e-01
-4.325675101417018054e-01
-4.484002075846000857e-01
-4.486306391257828818e-01
-4.470353066804253483e-01
-4.409437676469463163e-01
-4.391124265842950569e-01
-4.220510476505131003e-01
-4.067493028829253787e-01
-4.027688599917318424e-01
-4.165522885319657420e-01
-4.355754146451307207e-01
-4.522212944273450996e-01
-4.519967231708971744e-01
-4.493618683898705779e-01
-4.555259077003694923e-01
-4.698760553026558040e-01
-4.916394913725536941e-01
-5.036648732659919636e-01
-5.124747831357344685e-01
-5.115308228037910299e-01
-5.093268291580528295e-01
-4.894814325752837036e-01
-4.625623417639639356e-01
-4.621191186464202461e-01
-4.608674261232975078e-01
-4.674095758604132622e-01
-4.584018074265958087e-01
-4.347684409052133825e-01
-4.302945551272078784e-01
-4.395621439208012848e-01
-4.377927601747610975e-01
-4.375211537293984820e-01
-4.400940987013129968e-01
-4.278603142285494210e-01
-4.480345712805903213e-01
-4.643448243351421256e-01
-4.763475520959636889e-01
-4.832330771965772098e-01
-4.834824729451935310e-01
-4.786320690345756690e-01
-4.652228582646242838e-01
-4.587519390103799166e-01
-4.574988491117453204e-01
-4.709003257098101081e-01
-4.594756249625360223e-01
-4.436443554138019274e-01
-4.361143425247606120e-01
-4.297160846298200276e-01
-4.379444374619825830e-01
-4.471357801283428746e-01
-4.567771141439070925e-01
-4.473044877185485824e-01
-4.204851339924074449e-01
-4.028934049324618405e-01
-4.217642443115884321e-01
-4.487452073873437475e-01
-4.635475826038195635e-01
-4.772524431707652059e-01
-4.843617351066896726e-01
-4.823545799455676852e-01
-4.718671605274733505e-01
-4.564247595234400823e-01
-4.504480225519453263e-01
-4.513237309273547826e-01
-4.518770901594241218e-01
-4.566257614019507138e-01
-4.500466408095170623e-01
-4.370597116917803726e-01
-4.389652979615093487e-01
-4.419024729457511902e-01
-4.413178329818765455e-01
-4.418289909592926223e-01
-4.570824210675081822e-01
-4.614440503513683733e-01
-4.578773417063067841e-01
-4.617130632984544070e-01
-4.605847338764121335e-01
-4.578290835417633264e-01
-4.638712906032125272e-01
-4.763451901742566941e-01
-4.720478254466147217e-01
-4.626147935186132321e-01
-4.425541102190247433e-01
-4.335716957439246233e-01
-4.246173966834750346e-01
-4.322749303500460494e-01
-4.251835098016997216e-01
-4.162996802350711345e-01
-4.230484216630402972e-01
-4.316694729030706168e-01
-4.494605369638943193e-01
-4.686331967280334410e-01
-4.785757308531483067e-01
-4.773671987115589710e-01
-4.841015107309304399e-01
-4.782661429121823349e-01
-4.871195001936057811e-01
-4.894971079047732987e-01
-4.919603052190691383e-01
-5.001489815162257768e-01
-5.108577891618626410e-01
-5.160053250096131583e-01
-5.145329903406222760e-01
-5.081484401443242538e-01
-4.937915437353873060e-01
-4.882016740301046709e-01
-4.802056137008380299e-01
-4.589875545594315764e-01
-4.459022582513774702e-01
-4.352737288496630330e-01
-4.383598529935560095e-01
-4.474917433375746878e-01
-4.437911603799920002e-01
-4.291246125600628458e-01
-4.261672786214526498e-01
-4.379359292348337651e-01
-4.598521221198824671e-01
-4.868443398998222316e-01
-4.972906161786316281e-01
-4.810863712122852021e-01
-4.750792474151004363e-01
-4.670420550364230428e-01
-4.636930247516083403e-01
-4.791880641833229371e-01
-4.790573306726378933e-01
-4.721202428401092832e-01
-4.631777535090413900e-01
-4.533294654357860054e-01
-4.439393278603087634e-01
-4.370608865703705659e-01
-4.279164939961150882e-01
-4.206939492134869618e-01
-4.085977364949068269e-01
-3.854414603677863704e-01
-3.897874464587184340e-01
-3.844834406199428845e-01
-3.808570062533099820e-01
-3.820778870088570311e-01
-3.746696244164364753e-01
-3.604718618932324370e-01
-3.444950353570733759e-01
-3.265760357424971616e-01
-3.216658398860571810e-01
-3.159001166684637929e-01
-3.067892909550949954e-01
-3.154390494490914576e-01
-3.224970320171475224e-01
-3.049389863962976843e-01
-3.081590711612727240e-01
-3.021519132242946326e-01
-2.978511973739914609e-01
-2.912399771230243517e-01
-2.875693378697042890e-01
-2.769257020179705653e-01
-2.779070857863793487e-01
-2.816748332835830593e-01
-2.833719185840368748e-01
-3.060136332561148031e-01
-3.039711756978481505e-01
-2.989945071903151730e-01
-2.917954197131642502e-01
-2.943366539979350716e-01
-3.017400990078429879e-01
-3.000061010454886379e-01
-2.983336706675945860e-01
-2.936192894615367588e-01
-3.026703777832472908e-01
-2.986238752763388793e-01
-2.990915540426183350e-01
-3.186345961390932846e-01
-3.362986375502418079e-01
-3.483787204665044213e-01
-3.601209559479222611e-01
-3.773137980658849422e-01
-4.066020556339067227e-01
-4.310826563255851784e-01
-4.498266844090166305e-01
-4.776786680742222124e-01
-5.009043401754937896e-01
-5.132173495593906898e-01
-5.194093249150931735e-01
-5.271920514153400905e-01
-5.354708684596094503e-01
-5.382427654683293872e-01
-5.326027356465468099e-01
-5.196788762949884344e-01
-5.042445587021434639e-01
-4.993786100458579291e-01
-5.026871875156191383e-01
-5.046404874166385834e-01
-5.204086173092952183e-01
-5.222178585128582906e-01
-5.113040062658770202e-01
-4.938041737387339758e-01
-4.964021314226713111e-01
-5.021664625714635788e-01
-5.063331702048288196e-01
-5.081675224788899659e-01
-5.099643422303201667e-01
-5.055303797936854249e-01
-4.956577284856030774e-01
-4.761526202230330629e-01
-4.738565413639627688e-01
-4.826905745868876885e-01
-4.796307234885380799e-01
-4.972872484657088199e-01
-5.085302776572345751e-01
-5.101726271463387086e-01
-5.078792014156044976e-01
-5.078586835222201890e-01
-5.054627380226778266e-01
-5.168362972880947703e-01
-5.352180899916682000e-01
-5.348288691372342640e-01
-5.265862317052211194e-01
-5.259729742987683254e-01
-5.287417965575361700e-01
-5.427798236193746018e-01
-5.428595835960329241e-01
-5.424636132886118123e-01
-5.342244199874847110e-01
-5.376180745633009073e-01
-5.589326572412883776e-01
-5.794598464255358294e-01
-5.876833920068205153e-01
-5.996897324441243793e-01
-6.076839659965158624e-01
-6.120452871135886319e-01
-6.057795928492158977e-01
-6.108800678746775237e-01
-6.187079876489005592e-01
-6.218224654370249072e-01
-6.299289588273093710e-01
-6.295278962075399054e-01
-6.318702805763819486e-01
-6.447975151234701663e-01
-6.484557364855159101e-01
-6.543392518043985584e-01
-6.495788711944355809e-01
-6.486290485290319152e-01
-6.326768471557505658e-01
-6.097690363823532467e-01
-5.986522732053428664e-01
-5.891020860573481510e-01
-5.656803809968691255e-01
-5.483072409018351356e-01
-5.248651654815816858e-01
-4.994680946870035387e-01
-4.686937764307630983e-01
-4.341274699582901020e-01
-3.984958732696275985e-01
-3.617567942748679544e-01
-3.329934397731914020e-01
-2.984220139429393237e-01
-2.495010201071555522e-01
-1.821056789740715942e-01
-1.284047973648447527e-01
-7.651582676118279247e-02
-1.407400621742692023e-02
6.437186598418846717e-02
1.375107097701815384e-01
2.212971027012554381e-01
3.127615071152597404e-01
4.180792101665504190e-01
5.285553969469469759e-01
6.323495034071864307e-01
6.937473476126114758e-01
6.969450009488220577e-01
6.774287452898253292e-01
6.577473864846181684e-01
6.275079632922004880e-01
5.869517725380328788e-01
5.350195450844534850e-01
4.653803924864093333e-01
3.784870031373065435e-01
2.903479485995269505e-01
1.847126779937564578e-01
6.552503424053787717e-02
-4.703877834351491427e-02
-1.475678034410362049e-01
-2.614022564513729385e-01
-3.887867528461229627e-01
-5.203241352777894235e-01
-6.216717893482890389e-01
-6.857201639583153652e-01
-7.244122500194143388e-01
-7.617337984920986571e-01
-7.654675624156772606e-01
-7.603421660330635934e-01
-7.599075647958681845e-01
-7.627307120225137460e-01
-7.527271606820924443e-01
-7.270309884910489684e-01
-7.119205026235355671e-01
-7.023622723230260601e-01
-6.780903222202020464e-01
-6.550494561012237815e-01
-6.372155016842636632e-01
-6.159305581749079384e-01
-5.976734829396825877e-01
-5.837110362812686359e-01
-5.659701784521626866e-01
-5.549753416754000801e-01
-5.407536819894556146e-01
-5.325006784350159172e-01
-5.385931119876733453e-01
-5.349911091566523780e-01
-5.299667856140444222e-01
-5.365518788808125716e-01
-5.406508846106985455e-01
-5.288721526008932639e-01
-5.211824717924160577e-01
-5.346980446635695161e-01
-5.476364853105379904e-01
-5.548011826306092908e-01
-5.515375717528070432e-01
-5.489446092812625411e-01
-5.459949413658629069e-01
-5.335542972704152564e-01
-5.300089309855360309e-01
-5.046732218907312717e-01
-4.859799020442958084e-01
-4.770573136299183781e-01
-4.639473972071563868e-01
-4.602089541771434700e-01
-4.590845792088827926e-01
-4.533855121903713759e-01
-4.398009534537523635e-01
-4.477589020257010666e-01
-4.635210455317729794e-01
-4.700382127061693005e-01
-4.831964789903850366e-01
-4.759330240964641523e-01
-4.622891822807526641e-01
-4.729877540126628532e-01
-4.792561744098372545e-01
-4.922257557863151667e-01
-4.829333116866040831e-01
-4.816154042104658917e-01
-4.937990808930291520e-01
-4.879791590874362206e-01
-4.837742363422020131e-01
-4.957816198175973854e-01
-5.134162527109923380e-01
-4.980145023793597914e-01
-4.904185809520283379e-01
-4.754355091759641105e-01
-4.783029133668129096e-01
-4.848623698857788544e-01
-4.975856213369524439e-01
-5.079675282961669813e-01
-5.046933343318726894e-01
-4.771841700992139335e-01
-4.759905673414300820e-01
-4.919857440085876332e-01
-4.922066352150489821e-01
-4.880226007902885854e-01
-4.821712797535668837e-01
-4.846140431527404813e-01
-4.927399358468079749e-01
-4.911359652921347685e-01
-4.872437539029229603e-01
-4.833009502825558745e-01
-4.809390480037545879e-01
-4.653153027815395970e-01
-4.532501015528329624e-01
-4.337065845859752189e-01
-4.238877259619642790e-01
-4.218619228189418591e-01
-4.261173809500319876e-01
-4.284063079881300640e-01
-4.450965389877921119e-01
-4.496614693822996722e-01
-4.366279239657965272e-01
-4.367646678813761896e-01
-4.530803608775334501e-01
-4.768130546786641943e-01
-4.788381536692883911e-01
-4.733100108551013818e-01
-4.696014033971054324e-01
-4.721280412302095164e-01
-4.761903091812959010e-01
-4.803666766224511386e-01
-4.744055093034076354e-01
-4.513754735691066222e-01
-4.361405408019330965e-01
-4.335146564172520645e-01
-4.287879978996185226e-01
-4.196991139749815525e-01
-4.286598621079594218e-01
-4.433739425791921596e-01
-4.604084680378770500e-01
-4.691696023126102899e-01
-4.557982731786812680e-01
-4.716077624934711388e-01
-4.716611400978434898e-01
-4.671654410338706986e-01
-4.728094899645443605e-01
-4.788610024608604965e-01
-4.707011436160702944e-01
-4.567572192187312474e-01
-4.485679761845060565e-01
-4.328998372758224855e-01
-4.354060589913366641e-01
-4.370707690946079027e-01
-4.347112889158061821e-01
-4.450353430340460714e-01
-4.451730857930361607e-01
-4.327512947569319701e-01
-4.223062426897676858e-01
-4.174322607407936481e-01
-4.226000508120733024e-01
-4.274617735222568937e-01
-4.303803805557463447e-01
-4.341509677052445282e-01
-4.258542764954440507e-01
-4.288943042657185067e-01
-4.300717509883720258e-01
-4.476555835319968590e-01
-4.550202843502535455e-01
-4.565813520113120583e-01
-4.397864283522757156e-01
-4.272929226503485722e-01
-4.329894401696121609e-01
-4.339791121429363852e-01
-4.188620063284695383e-01
-4.083498731306274276e-01
-3.959218524226372216e-01
-3.993287813168494571e-01
-4.091473432291329315e-01
-4.087086874947232773e-01
-4.024776874694105389e-01
-3.878049671779169039e-01
-3.750415758864408255e-01
-3.830298020724938191e-01
-3.909196694055012689e-01
-4.017291913984339935e-01
-4.024768458846598729e-01
-4.074713997681683741e-01
-4.060690219855883076e-01
-4.027257752605394314e-01
-4.009883463458912001e-01
-4.034723240926552656e-01
-3.923506490463879448e-01
-3.926532909185223574e-01
-3.855783074589587134e-01
-3.760261473845701863e-01
-3.689168824409269076e-01
-3.699169328023821923e-01
-3.735734161058075209e-01
-3.712022635281727045e-01
